10.01163028 340
10.0378908454 408
10.0641514107 383
10.0904119761 387
10.1166725414 422
10.1429331068 388
10.1691936721 371
10.1954542375 376
10.2217148029 356
10.2479753682 362
10.2742359336 379
10.3004964989 373
10.3267570643 404
10.3530176297 370
10.379278195 380
10.4055387604 349
10.4317993257 400
10.4580598911 354
10.4843204564 350
10.5105810218 372
10.5368415872 359
10.5631021525 382
10.5893627179 343
10.6156232832 367
10.6418838486 363
10.6681444139 381
10.6944049793 369
10.7206655447 372
10.74692611 370
10.7731866754 358
10.7994472407 368
10.8257078061 361
10.8519683715 356
10.8782289368 367
10.9044895022 361
10.9307500675 324
10.9570106329 346
10.9832711982 332
11.0095317636 349
11.035792329 340
11.0620528943 349
11.0883134597 356
11.114574025 350
11.1408345904 359
11.1670951557 357
11.1933557211 374
11.2196162865 351
11.2458768518 366
11.2721374172 367
11.2983979825 356
11.3246585479 363
11.3509191133 375
11.3771796786 352
11.403440244 351
11.4297008093 379
11.4559613747 336
11.48222194 360
11.5084825054 376
11.5347430708 364
11.5610036361 322
11.5872642015 354
11.6135247668 368
11.6397853322 333
11.6660458975 352
11.6923064629 329
11.7185670283 373
11.7448275936 324
11.771088159 345
11.7973487243 307
11.8236092897 311
11.849869855 338
11.8761304204 348
11.9023909858 321
11.9286515511 329
11.9549121165 314
11.9811726818 360
12.0074332472 360
12.0336938126 333
12.0599543779 329
12.0862149433 310
12.1124755086 353
12.138736074 327
12.1649966393 315
12.1912572047 354
12.2175177701 326
12.2437783354 339
12.2700389008 328
12.2962994661 313
12.3225600315 312
12.3488205968 346
12.3750811622 350
12.4013417276 353
12.4276022929 352
12.4538628583 327
12.4801234236 380
12.506383989 337
12.5326445544 326
12.5589051197 355
12.5851656851 333
12.6114262504 308
12.6376868158 302
12.6639473811 338
12.6902079465 340
12.7164685119 357
12.7427290772 280
12.7689896426 319
12.7952502079 361
12.8215107733 357
12.8477713386 323
12.874031904 319
12.9002924694 319
12.9265530347 341
12.9528136001 317
12.9790741654 338
13.0053347308 329
13.0315952962 352
13.0578558615 324
13.0841164269 289
13.1103769922 315
13.1366375576 317
13.1628981229 297
13.1891586883 304
13.2154192537 330
13.241679819 289
13.2679403844 273
13.2942009497 304
13.3204615151 311
13.3467220804 318
13.3729826458 299
13.3992432112 322
13.4255037765 299
13.4517643419 289
13.4780249072 305
13.5042854726 318
13.530546038 291
13.5568066033 297
13.5830671687 357
13.609327734 284
13.6355882994 319
13.6618488647 299
13.6881094301 283
13.7143699955 287
13.7406305608 293
13.7668911262 300
13.7931516915 283
13.8194122569 314
13.8456728222 307
13.8719333876 282
13.898193953 282
13.9244545183 291
13.9507150837 282
13.976975649 306
14.0032362144 325
14.0294967798 288
14.0557573451 288
14.0820179105 292
14.1082784758 287
14.1345390412 288
14.1607996065 292
14.1870601719 283
14.2133207373 290
14.2395813026 279
14.265841868 300
14.2921024333 295
14.3183629987 273
14.344623564 280
14.3708841294 327
14.3971446948 287
14.4234052601 296
14.4496658255 275
14.4759263908 286
14.5021869562 293
14.5284475215 276
14.5547080869 307
14.5809686523 283
14.6072292176 301
14.633489783 280
14.6597503483 273
14.6860109137 309
14.7122714791 298
14.7385320444 296
14.7647926098 272
14.7910531751 294
14.8173137405 309
14.8435743058 304
14.8698348712 265
14.8960954366 304
14.9223560019 306
14.9486165673 300
14.9748771326 366
15.001137698 341
15.0273982633 357
15.0536588287 400
15.0799193941 455
15.1061799594 440
15.1324405248 430
15.1587010901 465
15.1849616555 484
15.2112222209 515
15.2374827862 510
15.2637433516 564
15.2900039169 580
15.3162644823 573
15.3425250476 618
15.368785613 605
15.3950461784 608
15.4213067437 637
15.4475673091 638
15.4738278744 633
15.5000884398 667
15.5263490051 629
15.5526095705 646
15.5788701359 651
15.6051307012 628
15.6313912666 649
15.6576518319 664
15.6839123973 685
15.7101729627 644
15.736433528 698
15.7626940934 693
15.7889546587 649
15.8152152241 690
15.8414757894 596
15.8677363548 543
15.8939969202 615
15.9202574855 547
15.9465180509 509
15.9727786162 476
15.9990391816 411
16.0252997469 397
16.0515603123 394
16.0778208777 338
16.104081443 307
16.1303420084 339
16.1566025737 299
16.1828631391 262
16.2091237045 275
16.2353842698 289
16.2616448352 256
16.2879054005 267
16.3141659659 281
16.3404265312 273
16.3666870966 271
16.392947662 295
16.4192082273 238
16.4454687927 263
16.471729358 267
16.4979899234 251
16.5242504887 254
16.5505110541 283
16.5767716195 291
16.6030321848 257
16.6292927502 276
16.6555533155 276
16.6818138809 272
16.7080744463 267
16.7343350116 271
16.760595577 249
16.7868561423 270
16.8131167077 250
16.839377273 241
16.8656378384 293
16.8918984038 278
16.9181589691 258
16.9444195345 236
16.9706800998 264
16.9969406652 261
17.0232012305 270
17.0494617959 255
17.0757223613 261
17.1019829266 237
17.128243492 294
17.1545040573 248
17.1807646227 267
17.207025188 288
17.2332857534 250
17.2595463188 274
17.2858068841 253
17.3120674495 283
17.3383280148 238
17.3645885802 258
17.3908491456 263
17.4171097109 294
17.4433702763 281
17.4696308416 271
17.495891407 254
17.5221519723 267
17.5484125377 296
17.5746731031 276
17.6009336684 257
17.6271942338 257
17.6534547991 251
17.6797153645 287
17.7059759298 246
17.7322364952 255
17.7584970606 267
17.7847576259 274
17.8110181913 252
17.8372787566 274
17.863539322 269
17.8897998874 277
17.9160604527 284
17.9423210181 280
17.9685815834 287
17.9948421488 256
18.0211027141 300
18.0473632795 296
18.0736238449 238
18.0998844102 292
18.1261449756 280
18.1524055409 271
18.1786661063 266
18.2049266716 274
18.231187237 260
18.2574478024 278
18.2837083677 292
18.3099689331 296
18.3362294984 276
18.3624900638 273
18.3887506292 273
18.4150111945 294
18.4412717599 269
18.4675323252 281
18.4937928906 270
18.5200534559 280
18.5463140213 247
18.5725745867 285
18.598835152 255
18.6250957174 271
18.6513562827 260
18.6776168481 288
18.7038774134 302
18.7301379788 230
18.7563985442 272
18.7826591095 295
18.8089196749 303
18.8351802402 316
18.8614408056 307
18.887701371 270
18.9139619363 298
18.9402225017 308
18.966483067 280
18.9927436324 287
19.0190041977 301
19.0452647631 307
19.0715253285 287
19.0977858938 252
19.1240464592 270
19.1503070245 265
19.1765675899 297
19.2028281552 261
19.2290887206 283
19.255349286 284
19.2816098513 317
19.3078704167 289
19.334130982 294
19.3603915474 286
19.3866521128 299
19.4129126781 283
19.4391732435 307
19.4654338088 301
19.4916943742 309
19.5179549395 290
19.5442155049 328
19.5704760703 307
19.5967366356 282
19.622997201 288
19.6492577663 343
19.6755183317 317
19.701778897 283
19.7280394624 291
19.7543000278 307
19.7805605931 309
19.8068211585 255
19.8330817238 293
19.8593422892 333
19.8856028546 313
19.9118634199 307
19.9381239853 274
19.9643845506 307
19.990645116 290
20.0169056813 304
20.0431662467 322
20.0694268121 303
20.0956873774 293
20.1219479428 305
20.1482085081 280
20.1744690735 320
20.2007296388 307
20.2269902042 349
20.2532507696 307
20.2795113349 297
20.3057719003 355
20.3320324656 289
20.358293031 308
20.3845535963 329
20.4108141617 312
20.4370747271 310
20.4633352924 309
20.4895958578 322
20.5158564231 297
20.5421169885 334
20.5683775539 282
20.5946381192 338
20.6208986846 317
20.6471592499 279
20.6734198153 318
20.6996803806 304
20.725940946 298
20.7522015114 320
20.7784620767 351
20.8047226421 346
20.8309832074 359
20.8572437728 336
20.8835043381 298
20.9097649035 308
20.9360254689 314
20.9622860342 314
20.9885465996 340
21.0148071649 353
21.0410677303 345
21.0673282957 327
21.093588861 332
21.1198494264 357
21.1461099917 329
21.1723705571 353
21.1986311224 378
21.2248916878 408
21.2511522532 399
21.2774128185 442
21.3036733839 453
21.3299339492 513
21.3561945146 572
21.3824550799 619
21.4087156453 611
21.4349762107 655
21.461236776 728
21.4874973414 817
21.5137579067 905
21.5400184721 934
21.5662790375 921
21.5925396028 952
21.6188001682 1037
21.6450607335 1046
21.6713212989 1039
21.6975818642 1077
21.7238424296 1055
21.750102995 1030
21.7763635603 1082
21.8026241257 1099
21.828884691 1106
21.8551452564 1112
21.8814058217 1095
21.9076663871 1123
21.9339269525 1075
21.9601875178 1089
21.9864480832 1094
22.0127086485 1156
22.0389692139 1151
22.0652297793 1083
22.0914903446 1097
22.11775091 1107
22.1440114753 1081
22.1702720407 1157
22.196532606 1094
22.2227931714 1167
22.2490537368 1111
22.2753143021 1135
22.3015748675 1088
22.3278354328 1068
22.3540959982 1068
22.3803565635 1055
22.4066171289 1072
22.4328776943 1056
22.4591382596 1000
22.485398825 1006
22.5116593903 997
22.5379199557 982
22.5641805211 957
22.5904410864 873
22.6167016518 829
22.6429622171 800
22.6692227825 706
22.6954833478 634
22.7217439132 583
22.7480044786 558
22.7742650439 459
22.8005256093 424
22.8267861746 428
22.85304674 360
22.8793073053 344
22.9055678707 308
22.9318284361 329
22.9580890014 305
22.9843495668 290
23.0106101321 301
23.0368706975 283
23.0631312628 314
23.0893918282 305
23.1156523936 278
23.1419129589 333
23.1681735243 286
23.1944340896 283
23.220694655 285
23.2469552204 276
23.2732157857 291
23.2994763511 277
23.3257369164 280
23.3519974818 294
23.3782580471 251
23.4045186125 273
23.4307791779 293
23.4570397432 281
23.4833003086 247
23.5095608739 262
23.5358214393 264
23.5620820046 235
23.58834257 274
23.6146031354 257
23.6408637007 281
23.6671242661 239
23.6933848314 244
23.7196453968 232
23.7459059622 269
23.7721665275 248
23.7984270929 250
23.8246876582 221
23.8509482236 251
23.8772087889 272
23.9034693543 246
23.9297299197 268
23.955990485 220
23.9822510504 237
24.0085116157 267
24.0347721811 260
24.0610327464 227
24.0872933118 241
24.1135538772 266
24.1398144425 238
24.1660750079 230
24.1923355732 235
24.2185961386 256
24.244856704 242
24.2711172693 268
24.2973778347 257
24.3236384 270
24.3498989654 247
24.3761595307 280
24.4024200961 223
24.4286806615 239
24.4549412268 246
24.4812017922 240
24.5074623575 230
24.5337229229 249
24.5599834882 247
24.5862440536 255
24.612504619 217
24.6387651843 247
24.6650257497 231
24.691286315 280
24.7175468804 220
24.7438074458 250
24.7700680111 263
24.7963285765 250
24.8225891418 245
24.8488497072 235
24.8751102725 244
24.9013708379 272
24.9276314033 251
24.9538919686 256
24.980152534 233
25.0064130993 224
25.0326736647 210
25.05893423 249
25.0851947954 253
25.1114553608 239
25.1377159261 221
25.1639764915 216
25.1902370568 262
25.2164976222 231
25.2427581876 265
25.2690187529 222
25.2952793183 250
25.3215398836 208
25.347800449 239
25.3740610143 231
25.4003215797 255
25.4265821451 226
25.4528427104 218
25.4791032758 214
25.5053638411 260
25.5316244065 243
25.5578849718 220
25.5841455372 206
25.6104061026 239
25.6366666679 218
25.6629272333 200
25.6891877986 193
25.715448364 228
25.7417089293 223
25.7679694947 246
25.7942300601 202
25.8204906254 248
25.8467511908 221
25.8730117561 224
25.8992723215 219
25.9255328869 213
25.9517934522 201
25.9780540176 214
26.0043145829 229
26.0305751483 216
26.0568357136 197
26.083096279 213
26.1093568444 224
26.1356174097 199
26.1618779751 213
26.1881385404 198
26.2143991058 216
26.2406596711 207
26.2669202365 225
26.2931808019 198
26.3194413672 192
26.3457019326 208
26.3719624979 201
26.3982230633 206
26.4244836287 174
26.450744194 224
26.4770047594 221
26.5032653247 183
26.5295258901 228
26.5557864554 176
26.5820470208 189
26.6083075862 205
26.6345681515 205
26.6608287169 195
26.6870892822 185
26.7133498476 190
26.7396104129 200
26.7658709783 188
26.7921315437 201
26.818392109 195
26.8446526744 197
26.8709132397 181
26.8971738051 196
26.9234343705 198
26.9496949358 225
26.9759555012 204
27.0022160665 215
27.0284766319 173
27.0547371972 207
27.0809977626 206
27.107258328 200
27.1335188933 196
27.1597794587 194
27.186040024 200
27.2123005894 214
27.2385611547 190
27.2648217201 191
27.2910822855 171
27.3173428508 169
27.3436034162 193
27.3698639815 219
27.3961245469 167
27.4223851123 157
27.4486456776 192
27.474906243 182
27.5011668083 175
27.5274273737 202
27.553687939 201
27.5799485044 182
27.6062090698 189
27.6324696351 175
27.6587302005 180
27.6849907658 196
27.7112513312 203
27.7375118965 170
27.7637724619 187
27.7900330273 189
27.8162935926 175
27.842554158 210
27.8688147233 184
27.8950752887 191
27.9213358541 202
27.9475964194 186
27.9738569848 192
28.0001175501 191
28.0263781155 194
28.0526386808 163
28.0788992462 169
28.1051598116 166
28.1314203769 193
28.1576809423 169
28.1839415076 201
28.210202073 167
28.2364626383 191
28.2627232037 214
28.2889837691 166
28.3152443344 183
28.3415048998 184
28.3677654651 189
28.3940260305 174
28.4202865959 191
28.4465471612 162
28.4728077266 186
28.4990682919 193
28.5253288573 188
28.5515894226 189
28.577849988 168
28.6041105534 170
28.6303711187 177
28.6566316841 166
28.6828922494 167
28.7091528148 165
28.7354133801 214
28.7616739455 193
28.7879345109 194
28.8141950762 188
28.8404556416 173
28.8667162069 200
28.8929767723 179
28.9192373376 177
28.945497903 195
28.9717584684 181
28.9980190337 173
29.0242795991 182
29.0505401644 173
29.0768007298 186
29.1030612952 180
29.1293218605 150
29.1555824259 173
29.1818429912 181
29.2081035566 198
29.2343641219 181
29.2606246873 195
29.2868852527 187
29.313145818 176
29.3394063834 166
29.3656669487 183
29.3919275141 166
29.4181880794 174
29.4444486448 198
29.4707092102 167
29.4969697755 172
29.5232303409 171
29.5494909062 195
29.5757514716 182
29.602012037 198
29.6282726023 182
29.6545331677 168
29.680793733 179
29.7070542984 167
29.7333148637 191
29.7595754291 163
29.7858359945 178
29.8120965598 175
29.8383571252 192
29.8646176905 170
29.8908782559 175
29.9171388212 184
29.9433993866 182
29.969659952 165
29.9959205173 193
30.0221810827 173
30.048441648 149
30.0747022134 184
30.1009627788 202
30.1272233441 186
30.1534839095 173
30.1797444748 215
30.2060050402 189
30.2322656055 192
30.2585261709 201
30.2847867363 212
30.3110473016 187
30.337307867 230
30.3635684323 244
30.3898289977 232
30.416089563 246
30.4423501284 254
30.4686106938 279
30.4948712591 235
30.5211318245 297
30.5473923898 274
30.5736529552 312
30.5999135206 319
30.6261740859 348
30.6524346513 373
30.6786952166 393
30.704955782 369
30.7312163473 390
30.7574769127 442
30.7837374781 450
30.8099980434 436
30.8362586088 489
30.8625191741 455
30.8887797395 462
30.9150403048 478
30.9413008702 456
30.9675614356 477
30.9938220009 426
31.0200825663 499
31.0463431316 462
31.072603697 543
31.0988642624 457
31.1251248277 500
31.1513853931 529
31.1776459584 521
31.2039065238 485
31.2301670891 491
31.2564276545 547
31.2826882199 544
31.3089487852 488
31.3352093506 535
31.3614699159 539
31.3877304813 503
31.4139910466 512
31.440251612 580
31.4665121774 535
31.4927727427 539
31.5190333081 568
31.5452938734 552
31.5715544388 523
31.5978150041 557
31.6240755695 565
31.6503361349 578
31.6765967002 554
31.7028572656 564
31.7291178309 592
31.7553783963 556
31.7816389617 559
31.807899527 529
31.8341600924 569
31.8604206577 534
31.8866812231 554
31.9129417884 555
31.9392023538 502
31.9654629192 557
31.9917234845 524
32.0179840499 553
32.0442446152 500
32.0705051806 502
32.0967657459 453
32.1230263113 479
32.1492868767 430
32.175547442 417
32.2018080074 415
32.2280685727 431
32.2543291381 412
32.2805897035 378
32.3068502688 350
32.3331108342 309
32.3593713995 290
32.3856319649 277
32.4118925302 240
32.4381530956 225
32.464413661 246
32.4906742263 185
32.5169347917 194
32.543195357 165
32.5694559224 174
32.5957164877 156
32.6219770531 157
32.6482376185 146
32.6744981838 162
32.7007587492 163
32.7270193145 171
32.7532798799 162
32.7795404453 159
32.8058010106 151
32.832061576 134
32.8583221413 132
32.8845827067 148
32.910843272 157
32.9371038374 141
32.9633644028 145
32.9896249681 152
33.0158855335 165
33.0421460988 139
33.0684066642 131
33.0946672295 118
33.1209277949 135
33.1471883603 124
33.1734489256 141
33.199709491 134
33.2259700563 136
33.2522306217 121
33.2784911871 134
33.3047517524 138
33.3310123178 158
33.3572728831 144
33.3835334485 122
33.4097940138 129
33.4360545792 134
33.4623151446 102
33.4885757099 130
33.5148362753 155
33.5410968406 128
33.567357406 141
33.5936179713 140
33.6198785367 122
33.6461391021 141
33.6723996674 139
33.6986602328 131
33.7249207981 123
33.7511813635 115
33.7774419289 122
33.8037024942 129
33.8299630596 134
33.8562236249 140
33.8824841903 148
33.9087447556 137
33.935005321 157
33.9612658864 138
33.9875264517 127
34.0137870171 133
34.0400475824 131
34.0663081478 133
34.0925687131 114
34.1188292785 126
34.1450898439 121
34.1713504092 138
34.1976109746 150
34.2238715399 156
34.2501321053 153
34.2763926707 156
34.302653236 159
34.3289138014 156
34.3551743667 146
34.3814349321 168
34.4076954974 166
34.4339560628 159
34.4602166282 173
34.4864771935 170
34.5127377589 183
34.5389983242 175
34.5652588896 161
34.5915194549 162
34.6177800203 175
34.6440405857 187
34.670301151 182
34.6965617164 181
34.7228222817 174
34.7490828471 189
34.7753434124 185
34.8016039778 182
34.8278645432 199
34.8541251085 201
34.8803856739 208
34.9066462392 203
34.9329068046 151
34.95916737 179
34.9854279353 172
35.0116885007 189
35.037949066 153
35.0642096314 199
35.0904701967 185
35.1167307621 197
35.1429913275 183
35.1692518928 207
35.1955124582 206
35.2217730235 184
35.2480335889 223
35.2742941542 184
35.3005547196 204
35.326815285 196
35.3530758503 200
35.3793364157 201
35.405596981 178
35.4318575464 207
35.4581181118 187
35.4843786771 208
35.5106392425 205
35.5368998078 210
35.5631603732 193
35.5894209385 181
35.6156815039 183
35.6419420693 199
35.6682026346 174
35.6944632 162
35.7207237653 174
35.7469843307 173
35.773244896 178
35.7995054614 160
35.8257660268 185
35.8520265921 185
35.8782871575 192
35.9045477228 164
35.9308082882 190
35.9570688536 178
35.9833294189 178
36.0095899843 181
36.0358505496 155
36.062111115 158
36.0883716803 169
36.1146322457 162
36.1408928111 172
36.1671533764 151
36.1934139418 156
36.2196745071 147
36.2459350725 164
36.2721956378 162
36.2984562032 139
36.3247167686 135
36.3509773339 137
36.3772378993 120
36.4034984646 124
36.42975903 132
36.4560195954 117
36.4822801607 119
36.5085407261 123
36.5348012914 128
36.5610618568 126
36.5873224221 115
36.6135829875 112
36.6398435529 124
36.6661041182 104
36.6923646836 130
36.7186252489 124
36.7448858143 121
36.7711463796 109
36.797406945 127
36.8236675104 115
36.8499280757 118
36.8761886411 117
36.9024492064 119
36.9287097718 132
36.9549703372 111
36.9812309025 107
37.0074914679 118
37.0337520332 91
37.0600125986 125
37.0862731639 117
37.1125337293 118
37.1387942947 130
37.16505486 113
37.1913154254 125
37.2175759907 123
37.2438365561 119
37.2700971214 118
37.2963576868 127
37.3226182522 129
37.3488788175 117
37.3751393829 137
37.4013999482 151
37.4276605136 139
37.4539210789 129
37.4801816443 138
37.5064422097 160
37.532702775 175
37.5589633404 166
37.5852239057 167
37.6114844711 187
37.6377450365 184
37.6640056018 169
37.6902661672 201
37.7165267325 195
37.7427872979 193
37.7690478632 225
37.7953084286 201
37.821568994 209
37.8478295593 231
37.8740901247 219
37.90035069 229
37.9266112554 256
37.9528718207 225
37.9791323861 230
38.0053929515 241
38.0316535168 265
38.0579140822 256
38.0841746475 288
38.1104352129 242
38.1366957783 266
38.1629563436 279
38.189216909 265
38.2154774743 290
38.2417380397 303
38.267998605 269
38.2942591704 281
38.3205197358 268
38.3467803011 303
38.3730408665 295
38.3993014318 295
38.4255619972 279
38.4518225625 328
38.4780831279 296
38.5043436933 314
38.5306042586 287
38.556864824 316
38.5831253893 283
38.6093859547 283
38.6356465201 296
38.6619070854 301
38.6881676508 292
38.7144282161 314
38.7406887815 320
38.7669493468 317
38.7932099122 306
38.8194704776 308
38.8457310429 330
38.8719916083 332
38.8982521736 273
38.924512739 316
38.9507733043 295
38.9770338697 323
39.0032944351 330
39.0295550004 269
39.0558155658 298
39.0820761311 293
39.1083366965 294
39.1345972619 331
39.1608578272 292
39.1871183926 273
39.2133789579 289
39.2396395233 292
39.2659000886 291
39.292160654 271
39.3184212194 259
39.3446817847 309
39.3709423501 279
39.3972029154 282
39.4234634808 307
39.4497240461 256
39.4759846115 280
39.5022451769 279
39.5285057422 278
39.5547663076 271
39.5810268729 276
39.6072874383 259
39.6335480037 240
39.659808569 223
39.6860691344 218
39.7123296997 216
39.7385902651 225
39.7648508304 196
39.7911113958 172
39.8173719612 179
39.8436325265 189
39.8698930919 179
39.8961536572 155
39.9224142226 150
39.9486747879 134
39.9749353533 119
40.0011959187 131
40.027456484 125
40.0537170494 117
40.0799776147 128
40.1062381801 117
40.1324987454 138
40.1587593108 101
40.1850198762 103
40.2112804415 104
40.2375410069 97
40.2638015722 106
40.2900621376 108
40.316322703 127
40.3425832683 95
40.3688438337 96
40.395104399 120
40.4213649644 103
40.4476255297 115
40.4738860951 117
40.5001466605 108
40.5264072258 102
40.5526677912 113
40.5789283565 100
40.6051889219 132
40.6314494872 107
40.6577100526 119
40.683970618 93
40.7102311833 106
40.7364917487 98
40.762752314 86
40.7890128794 107
40.8152734448 102
40.8415340101 97
40.8677945755 88
40.8940551408 110
40.9203157062 93
40.9465762715 97
40.9728368369 86
40.9990974023 102
41.0253579676 103
41.051618533 98
41.0778790983 81
41.1041396637 89
41.130400229 110
41.1566607944 115
41.1829213598 99
41.2091819251 114
41.2354424905 91
41.2617030558 97
41.2879636212 104
41.3142241866 100
41.3404847519 98
41.3667453173 101
41.3930058826 87
41.419266448 91
41.4455270133 118
41.4717875787 106
41.4980481441 99
41.5243087094 97
41.5505692748 77
41.5768298401 105
41.6030904055 93
41.6293509708 91
41.6556115362 95
41.6818721016 103
41.7081326669 94
41.7343932323 82
41.7606537976 113
41.786914363 109
41.8131749284 119
41.8394354937 93
41.8656960591 104
41.8919566244 109
41.9182171898 91
41.9444777551 91
41.9707383205 96
41.9969988859 112
42.0232594512 93
42.0495200166 110
42.0757805819 103
42.1020411473 105
42.1283017126 89
42.154562278 80
42.1808228434 96
42.2070834087 96
42.2333439741 110
42.2596045394 109
42.2858651048 104
42.3121256702 127
42.3383862355 102
42.3646468009 104
42.3909073662 115
42.4171679316 122
42.4434284969 104
42.4696890623 100
42.4959496277 79
42.522210193 119
42.5484707584 90
42.5747313237 105
42.6009918891 84
42.6272524544 88
42.6535130198 80
42.6797735852 110
42.7060341505 102
42.7322947159 90
42.7585552812 108
42.7848158466 85
42.811076412 90
42.8373369773 105
42.8635975427 95
42.889858108 81
42.9161186734 92
42.9423792387 95
42.9686398041 82
42.9949003695 100
43.0211609348 102
43.0474215002 111
43.0736820655 109
43.0999426309 100
43.1262031962 101
43.1524637616 106
43.178724327 83
43.2049848923 87
43.2312454577 108
43.257506023 104
43.2837665884 109
43.3100271537 117
43.3362877191 112
43.3625482845 112
43.3888088498 97
43.4150694152 115
43.4413299805 116
43.4675905459 98
43.4938511113 108
43.5201116766 107
43.546372242 102
43.5726328073 95
43.5988933727 125
43.625153938 122
43.6514145034 106
43.6776750688 115
43.7039356341 115
43.7301961995 121
43.7564567648 133
43.7827173302 134
43.8089778955 121
43.8352384609 120
43.8614990263 122
43.8877595916 173
43.914020157 146
43.9402807223 151
43.9665412877 141
43.9928018531 165
44.0190624184 168
44.0453229838 154
44.0715835491 154
44.0978441145 151
44.1241046798 135
44.1503652452 165
44.1766258106 149
44.2028863759 165
44.2291469413 171
44.2554075066 155
44.281668072 173
44.3079286373 171
44.3341892027 181
44.3604497681 166
44.3867103334 181
44.4129708988 174
44.4392314641 180
44.4654920295 160
44.4917525949 161
44.5180131602 184
44.5442737256 182
44.5705342909 184
44.5967948563 170
44.6230554216 177
44.649315987 155
44.6755765524 209
44.7018371177 196
44.7280976831 204
44.7543582484 190
44.7806188138 180
44.8068793791 176
44.8331399445 201
44.8594005099 180
44.8856610752 202
44.9119216406 171
44.9381822059 196
44.9644427713 205
44.9907033367 207
45.016963902 177
45.0432244674 200
45.0694850327 212
45.0957455981 172
45.1220061634 206
45.1482667288 205
45.1745272942 180
45.2007878595 197
45.2270484249 201
45.2533089902 174
45.2795695556 215
45.3058301209 161
45.3320906863 197
45.3583512517 199
45.384611817 190
45.4108723824 220
45.4371329477 201
45.4633935131 199
45.4896540785 201
45.5159146438 211
45.5421752092 167
45.5684357745 180
45.5946963399 174
45.6209569052 189
45.6472174706 176
45.673478036 180
45.6997386013 185
45.7259991667 190
45.752259732 191
45.7785202974 167
45.8047808627 189
45.8310414281 182
45.8573019935 199
45.8835625588 162
45.9098231242 168
45.9360836895 173
45.9623442549 172
45.9886048202 148
46.0148653856 189
46.041125951 174
46.0673865163 166
46.0936470817 148
46.119907647 144
46.1461682124 152
46.1724287778 158
46.1986893431 159
46.2249499085 148
46.2512104738 142
46.2774710392 135
46.3037316045 109
46.3299921699 116
46.3562527353 127
46.3825133006 118
46.408773866 122
46.4350344313 126
46.4612949967 105
46.487555562 104
46.5138161274 104
46.5400766928 95
46.5663372581 116
46.5925978235 109
46.6188583888 117
46.6451189542 106
46.6713795196 125
46.6976400849 120
46.7239006503 114
46.7501612156 114
46.776421781 118
46.8026823463 124
46.8289429117 119
46.8552034771 105
46.8814640424 107
46.9077246078 101
46.9339851731 113
46.9602457385 113
46.9865063038 117
47.0127668692 119
47.0390274346 110
47.0652879999 109
47.0915485653 101
47.1178091306 126
47.144069696 124
47.1703302614 102
47.1965908267 107
47.2228513921 94
47.2491119574 121
47.2753725228 122
47.3016330881 85
47.3278936535 124
47.3541542189 132
47.3804147842 141
47.4066753496 90
47.4329359149 120
47.4591964803 121
47.4854570456 128
47.511717611 121
47.5379781764 123
47.5642387417 109
47.5904993071 108
47.6167598724 124
47.6430204378 125
47.6692810032 94
47.6955415685 117
47.7218021339 125
47.7480626992 111
47.7743232646 98
47.8005838299 126
47.8268443953 145
47.8531049607 129
47.879365526 122
47.9056260914 100
47.9318866567 106
47.9581472221 119
47.9844077874 112
48.0106683528 93
48.0369289182 116
48.0631894835 116
48.0894500489 136
48.1157106142 123
48.1419711796 91
48.168231745 101
48.1944923103 128
48.2207528757 124
48.247013441 102
48.2732740064 118
48.2995345717 122
48.3257951371 113
48.3520557025 122
48.3783162678 128
48.4045768332 129
48.4308373985 124
48.4570979639 110
48.4833585292 118
48.5096190946 115
48.53587966 100
48.5621402253 110
48.5884007907 101
48.614661356 98
48.6409219214 106
48.6671824867 118
48.6934430521 118
48.7197036175 124
48.7459641828 96
48.7722247482 130
48.7984853135 110
48.8247458789 117
48.8510064443 132
48.8772670096 108
48.903527575 89
48.9297881403 116
48.9560487057 108
48.982309271 107
49.0085698364 132
49.0348304018 108
49.0610909671 122
49.0873515325 118
49.1136120978 112
49.1398726632 97
49.1661332285 125
49.1923937939 115
49.2186543593 109
49.2449149246 111
49.27117549 121
49.2974360553 143
49.3236966207 110
49.3499571861 112
49.3762177514 130
49.4024783168 106
49.4287388821 112
49.4549994475 118
49.4812600128 111
49.5075205782 119
49.5337811436 107
49.5600417089 132
49.5863022743 133
49.6125628396 118
49.638823405 128
49.6650839703 139
49.6913445357 120
49.7176051011 144
49.7438656664 117
49.7701262318 112
49.7963867971 135
49.8226473625 132
49.8489079279 138
49.8751684932 131
49.9014290586 133
49.9276896239 105
49.9539501893 138
49.9802107546 126
50.00647132 142

