10.01163028 367
10.0378908454 383
10.0641514107 335
10.0904119761 357
10.1166725414 357
10.1429331068 396
10.1691936721 382
10.1954542375 350
10.2217148029 394
10.2479753682 369
10.2742359336 365
10.3004964989 402
10.3267570643 359
10.3530176297 420
10.379278195 347
10.4055387604 332
10.4317993257 389
10.4580598911 405
10.4843204564 397
10.5105810218 387
10.5368415872 359
10.5631021525 356
10.5893627179 345
10.6156232832 347
10.6418838486 394
10.6681444139 371
10.6944049793 368
10.7206655447 400
10.74692611 342
10.7731866754 399
10.7994472407 387
10.8257078061 362
10.8519683715 363
10.8782289368 343
10.9044895022 367
10.9307500675 370
10.9570106329 317
10.9832711982 349
11.0095317636 372
11.035792329 321
11.0620528943 348
11.0883134597 355
11.114574025 317
11.1408345904 357
11.1670951557 354
11.1933557211 335
11.2196162865 365
11.2458768518 364
11.2721374172 349
11.2983979825 329
11.3246585479 340
11.3509191133 351
11.3771796786 354
11.403440244 348
11.4297008093 335
11.4559613747 377
11.48222194 362
11.5084825054 344
11.5347430708 337
11.5610036361 317
11.5872642015 347
11.6135247668 337
11.6397853322 320
11.6660458975 349
11.6923064629 369
11.7185670283 301
11.7448275936 323
11.771088159 310
11.7973487243 327
11.8236092897 346
11.849869855 324
11.8761304204 303
11.9023909858 339
11.9286515511 335
11.9549121165 321
11.9811726818 317
12.0074332472 337
12.0336938126 371
12.0599543779 329
12.0862149433 324
12.1124755086 352
12.138736074 333
12.1649966393 357
12.1912572047 342
12.2175177701 354
12.2437783354 339
12.2700389008 347
12.2962994661 362
12.3225600315 314
12.3488205968 332
12.3750811622 370
12.4013417276 331
12.4276022929 339
12.4538628583 303
12.4801234236 339
12.506383989 359
12.5326445544 325
12.5589051197 326
12.5851656851 327
12.6114262504 348
12.6376868158 332
12.6639473811 314
12.6902079465 346
12.7164685119 352
12.7427290772 346
12.7689896426 326
12.7952502079 347
12.8215107733 315
12.8477713386 327
12.874031904 337
12.9002924694 328
12.9265530347 333
12.9528136001 327
12.9790741654 306
13.0053347308 359
13.0315952962 323
13.0578558615 333
13.0841164269 319
13.1103769922 333
13.1366375576 327
13.1628981229 318
13.1891586883 307
13.2154192537 315
13.241679819 293
13.2679403844 306
13.2942009497 344
13.3204615151 304
13.3467220804 305
13.3729826458 299
13.3992432112 300
13.4255037765 314
13.4517643419 318
13.4780249072 335
13.5042854726 284
13.530546038 282
13.5568066033 314
13.5830671687 306
13.609327734 324
13.6355882994 295
13.6618488647 300
13.6881094301 296
13.7143699955 285
13.7406305608 304
13.7668911262 302
13.7931516915 316
13.8194122569 277
13.8456728222 284
13.8719333876 273
13.898193953 314
13.9244545183 260
13.9507150837 305
13.976975649 311
14.0032362144 306
14.0294967798 267
14.0557573451 259
14.0820179105 299
14.1082784758 263
14.1345390412 295
14.1607996065 273
14.1870601719 314
14.2133207373 308
14.2395813026 272
14.265841868 294
14.2921024333 285
14.3183629987 301
14.344623564 311
14.3708841294 282
14.3971446948 319
14.4234052601 296
14.4496658255 279
14.4759263908 305
14.5021869562 304
14.5284475215 318
14.5547080869 280
14.5809686523 307
14.6072292176 269
14.633489783 297
14.6597503483 312
14.6860109137 339
14.7122714791 295
14.7385320444 359
14.7647926098 324
14.7910531751 311
14.8173137405 332
14.8435743058 344
14.8698348712 390
14.8960954366 399
14.9223560019 374
14.9486165673 429
14.9748771326 436
15.001137698 467
15.0273982633 464
15.0536588287 521
15.0799193941 502
15.1061799594 533
15.1324405248 556
15.1587010901 586
15.1849616555 624
15.2112222209 613
15.2374827862 671
15.2637433516 661
15.2900039169 695
15.3162644823 706
15.3425250476 711
15.368785613 712
15.3950461784 702
15.4213067437 679
15.4475673091 721
15.4738278744 739
15.5000884398 736
15.5263490051 716
15.5526095705 680
15.5788701359 732
15.6051307012 714
15.6313912666 755
15.6576518319 706
15.6839123973 697
15.7101729627 705
15.736433528 694
15.7626940934 702
15.7889546587 654
15.8152152241 668
15.8414757894 697
15.8677363548 686
15.8939969202 597
15.9202574855 576
15.9465180509 549
15.9727786162 552
15.9990391816 525
16.0252997469 415
16.0515603123 406
16.0778208777 388
16.104081443 359
16.1303420084 288
16.1566025737 301
16.1828631391 287
16.2091237045 317
16.2353842698 312
16.2616448352 235
16.2879054005 283
16.3141659659 299
16.3404265312 294
16.3666870966 301
16.392947662 306
16.4192082273 309
16.4454687927 237
16.471729358 279
16.4979899234 259
16.5242504887 266
16.5505110541 277
16.5767716195 265
16.6030321848 264
16.6292927502 238
16.6555533155 249
16.6818138809 278
16.7080744463 275
16.7343350116 289
16.760595577 266
16.7868561423 267
16.8131167077 273
16.839377273 245
16.8656378384 263
16.8918984038 266
16.9181589691 272
16.9444195345 270
16.9706800998 294
16.9969406652 277
17.0232012305 226
17.0494617959 261
17.0757223613 243
17.1019829266 291
17.128243492 244
17.1545040573 283
17.1807646227 261
17.207025188 250
17.2332857534 268
17.2595463188 275
17.2858068841 283
17.3120674495 281
17.3383280148 259
17.3645885802 218
17.3908491456 264
17.4171097109 249
17.4433702763 278
17.4696308416 271
17.495891407 254
17.5221519723 262
17.5484125377 265
17.5746731031 262
17.6009336684 276
17.6271942338 268
17.6534547991 273
17.6797153645 274
17.7059759298 281
17.7322364952 262
17.7584970606 254
17.7847576259 259
17.8110181913 269
17.8372787566 249
17.863539322 288
17.8897998874 232
17.9160604527 291
17.9423210181 286
17.9685815834 269
17.9948421488 291
18.0211027141 253
18.0473632795 299
18.0736238449 285
18.0998844102 261
18.1261449756 255
18.1524055409 282
18.1786661063 286
18.2049266716 289
18.231187237 278
18.2574478024 278
18.2837083677 286
18.3099689331 256
18.3362294984 281
18.3624900638 263
18.3887506292 279
18.4150111945 250
18.4412717599 247
18.4675323252 280
18.4937928906 282
18.5200534559 298
18.5463140213 302
18.5725745867 311
18.598835152 254
18.6250957174 302
18.6513562827 287
18.6776168481 278
18.7038774134 278
18.7301379788 297
18.7563985442 279
18.7826591095 308
18.8089196749 290
18.8351802402 251
18.8614408056 277
18.887701371 294
18.9139619363 300
18.9402225017 273
18.966483067 286
18.9927436324 282
19.0190041977 306
19.0452647631 297
19.0715253285 297
19.0977858938 279
19.1240464592 317
19.1503070245 280
19.1765675899 302
19.2028281552 271
19.2290887206 286
19.255349286 312
19.2816098513 292
19.3078704167 307
19.334130982 291
19.3603915474 320
19.3866521128 288
19.4129126781 328
19.4391732435 284
19.4654338088 272
19.4916943742 330
19.5179549395 284
19.5442155049 294
19.5704760703 290
19.5967366356 321
19.622997201 287
19.6492577663 293
19.6755183317 288
19.701778897 294
19.7280394624 310
19.7543000278 299
19.7805605931 290
19.8068211585 310
19.8330817238 319
19.8593422892 280
19.8856028546 287
19.9118634199 320
19.9381239853 299
19.9643845506 297
19.990645116 298
20.0169056813 323
20.0431662467 325
20.0694268121 316
20.0956873774 319
20.1219479428 304
20.1482085081 338
20.1744690735 326
20.2007296388 301
20.2269902042 336
20.2532507696 310
20.2795113349 316
20.3057719003 312
20.3320324656 304
20.358293031 301
20.3845535963 342
20.4108141617 306
20.4370747271 302
20.4633352924 312
20.4895958578 350
20.5158564231 302
20.5421169885 290
20.5683775539 301
20.5946381192 324
20.6208986846 300
20.6471592499 320
20.6734198153 315
20.6996803806 308
20.725940946 322
20.7522015114 313
20.7784620767 317
20.8047226421 311
20.8309832074 337
20.8572437728 333
20.8835043381 314
20.9097649035 318
20.9360254689 335
20.9622860342 329
20.9885465996 359
21.0148071649 320
21.0410677303 349
21.0673282957 356
21.093588861 335
21.1198494264 332
21.1461099917 331
21.1723705571 350
21.1986311224 400
21.2248916878 385
21.2511522532 446
21.2774128185 414
21.3036733839 423
21.3299339492 434
21.3561945146 449
21.3824550799 431
21.4087156453 418
21.4349762107 535
21.461236776 486
21.4874973414 523
21.5137579067 547
21.5400184721 569
21.5662790375 504
21.5925396028 540
21.6188001682 557
21.6450607335 585
21.6713212989 603
21.6975818642 622
21.7238424296 563
21.750102995 666
21.7763635603 613
21.8026241257 628
21.828884691 624
21.8551452564 612
21.8814058217 597
21.9076663871 631
21.9339269525 597
21.9601875178 661
21.9864480832 631
22.0127086485 632
22.0389692139 654
22.0652297793 630
22.0914903446 648
22.11775091 651
22.1440114753 667
22.1702720407 625
22.196532606 649
22.2227931714 634
22.2490537368 625
22.2753143021 627
22.3015748675 592
22.3278354328 618
22.3540959982 610
22.3803565635 597
22.4066171289 633
22.4328776943 594
22.4591382596 550
22.485398825 571
22.5116593903 584
22.5379199557 586
22.5641805211 552
22.5904410864 500
22.6167016518 497
22.6429622171 491
22.6692227825 469
22.6954833478 428
22.7217439132 447
22.7480044786 382
22.7742650439 372
22.8005256093 348
22.8267861746 314
22.85304674 340
22.8793073053 297
22.9055678707 316
22.9318284361 291
22.9580890014 287
22.9843495668 284
23.0106101321 283
23.0368706975 293
23.0631312628 277
23.0893918282 247
23.1156523936 275
23.1419129589 255
23.1681735243 258
23.1944340896 291
23.220694655 277
23.2469552204 283
23.2732157857 262
23.2994763511 274
23.3257369164 254
23.3519974818 240
23.3782580471 272
23.4045186125 275
23.4307791779 244
23.4570397432 241
23.4833003086 240
23.5095608739 261
23.5358214393 255
23.5620820046 275
23.58834257 266
23.6146031354 261
23.6408637007 254
23.6671242661 266
23.6933848314 267
23.7196453968 271
23.7459059622 279
23.7721665275 250
23.7984270929 251
23.8246876582 264
23.8509482236 234
23.8772087889 231
23.9034693543 238
23.9297299197 220
23.955990485 266
23.9822510504 265
24.0085116157 251
24.0347721811 223
24.0610327464 278
24.0872933118 257
24.1135538772 246
24.1398144425 259
24.1660750079 216
24.1923355732 251
24.2185961386 231
24.244856704 245
24.2711172693 252
24.2973778347 229
24.3236384 247
24.3498989654 231
24.3761595307 240
24.4024200961 256
24.4286806615 273
24.4549412268 249
24.4812017922 245
24.5074623575 230
24.5337229229 255
24.5599834882 238
24.5862440536 241
24.612504619 256
24.6387651843 235
24.6650257497 250
24.691286315 272
24.7175468804 255
24.7438074458 235
24.7700680111 229
24.7963285765 238
24.8225891418 244
24.8488497072 289
24.8751102725 243
24.9013708379 242
24.9276314033 244
24.9538919686 209
24.980152534 255
25.0064130993 252
25.0326736647 227
25.05893423 273
25.0851947954 263
25.1114553608 248
25.1377159261 264
25.1639764915 261
25.1902370568 238
25.2164976222 250
25.2427581876 266
25.2690187529 266
25.2952793183 254
25.3215398836 235
25.347800449 247
25.3740610143 243
25.4003215797 219
25.4265821451 240
25.4528427104 223
25.4791032758 248
25.5053638411 266
25.5316244065 226
25.5578849718 226
25.5841455372 203
25.6104061026 215
25.6366666679 243
25.6629272333 238
25.6891877986 205
25.715448364 210
25.7417089293 212
25.7679694947 185
25.7942300601 239
25.8204906254 228
25.8467511908 212
25.8730117561 223
25.8992723215 243
25.9255328869 203
25.9517934522 209
25.9780540176 206
26.0043145829 235
26.0305751483 199
26.0568357136 224
26.083096279 195
26.1093568444 216
26.1356174097 194
26.1618779751 195
26.1881385404 201
26.2143991058 216
26.2406596711 210
26.2669202365 225
26.2931808019 221
26.3194413672 175
26.3457019326 199
26.3719624979 180
26.3982230633 186
26.4244836287 193
26.450744194 207
26.4770047594 220
26.5032653247 232
26.5295258901 208
26.5557864554 191
26.5820470208 181
26.6083075862 200
26.6345681515 206
26.6608287169 201
26.6870892822 191
26.7133498476 221
26.7396104129 219
26.7658709783 204
26.7921315437 205
26.818392109 193
26.8446526744 191
26.8709132397 181
26.8971738051 173
26.9234343705 162
26.9496949358 196
26.9759555012 178
27.0022160665 175
27.0284766319 205
27.0547371972 193
27.0809977626 196
27.107258328 199
27.1335188933 172
27.1597794587 193
27.186040024 209
27.2123005894 218
27.2385611547 200
27.2648217201 197
27.2910822855 188
27.3173428508 198
27.3436034162 188
27.3698639815 167
27.3961245469 191
27.4223851123 184
27.4486456776 172
27.474906243 189
27.5011668083 167
27.5274273737 204
27.553687939 190
27.5799485044 182
27.6062090698 185
27.6324696351 198
27.6587302005 159
27.6849907658 175
27.7112513312 208
27.7375118965 175
27.7637724619 197
27.7900330273 191
27.8162935926 198
27.842554158 175
27.8688147233 199
27.8950752887 185
27.9213358541 182
27.9475964194 199
27.9738569848 185
28.0001175501 187
28.0263781155 192
28.0526386808 175
28.0788992462 211
28.1051598116 182
28.1314203769 165
28.1576809423 177
28.1839415076 186
28.210202073 197
28.2364626383 207
28.2627232037 174
28.2889837691 199
28.3152443344 193
28.3415048998 192
28.3677654651 175
28.3940260305 212
28.4202865959 196
28.4465471612 160
28.4728077266 189
28.4990682919 188
28.5253288573 193
28.5515894226 182
28.577849988 191
28.6041105534 192
28.6303711187 211
28.6566316841 189
28.6828922494 193
28.7091528148 185
28.7354133801 193
28.7616739455 168
28.7879345109 202
28.8141950762 179
28.8404556416 166
28.8667162069 181
28.8929767723 192
28.9192373376 195
28.945497903 182
28.9717584684 194
28.9980190337 183
29.0242795991 182
29.0505401644 199
29.0768007298 195
29.1030612952 154
29.1293218605 194
29.1555824259 174
29.1818429912 175
29.2081035566 190
29.2343641219 205
29.2606246873 179
29.2868852527 161
29.313145818 170
29.3394063834 200
29.3656669487 204
29.3919275141 192
29.4181880794 185
29.4444486448 191
29.4707092102 209
29.4969697755 180
29.5232303409 185
29.5494909062 202
29.5757514716 217
29.602012037 188
29.6282726023 193
29.6545331677 185
29.680793733 214
29.7070542984 208
29.7333148637 197
29.7595754291 192
29.7858359945 190
29.8120965598 195
29.8383571252 181
29.8646176905 212
29.8908782559 225
29.9171388212 189
29.9433993866 220
29.969659952 222
29.9959205173 226
30.0221810827 231
30.048441648 253
30.0747022134 271
30.1009627788 240
30.1272233441 230
30.1534839095 306
30.1797444748 308
30.2060050402 338
30.2322656055 352
30.2585261709 343
30.2847867363 353
30.3110473016 351
30.337307867 359
30.3635684323 362
30.3898289977 390
30.416089563 429
30.4423501284 404
30.4686106938 421
30.4948712591 446
30.5211318245 498
30.5473923898 477
30.5736529552 487
30.5999135206 522
30.6261740859 545
30.6524346513 523
30.6786952166 602
30.704955782 571
30.7312163473 652
30.7574769127 655
30.7837374781 661
30.8099980434 637
30.8362586088 656
30.8625191741 709
30.8887797395 727
30.9150403048 728
30.9413008702 700
30.9675614356 686
30.9938220009 726
31.0200825663 736
31.0463431316 774
31.072603697 752
31.0988642624 703
31.1251248277 760
31.1513853931 693
31.1776459584 740
31.2039065238 727
31.2301670891 782
31.2564276545 699
31.2826882199 837
31.3089487852 750
31.3352093506 728
31.3614699159 721
31.3877304813 779
31.4139910466 727
31.440251612 763
31.4665121774 794
31.4927727427 758
31.5190333081 783
31.5452938734 765
31.5715544388 814
31.5978150041 809
31.6240755695 755
31.6503361349 778
31.6765967002 788
31.7028572656 828
31.7291178309 768
31.7553783963 791
31.7816389617 759
31.807899527 704
31.8341600924 778
31.8604206577 773
31.8866812231 715
31.9129417884 736
31.9392023538 708
31.9654629192 727
31.9917234845 698
32.0179840499 734
32.0442446152 700
32.0705051806 655
32.0967657459 644
32.1230263113 665
32.1492868767 623
32.175547442 629
32.2018080074 586
32.2280685727 585
32.2543291381 513
32.2805897035 503
32.3068502688 509
32.3331108342 436
32.3593713995 399
32.3856319649 354
32.4118925302 338
32.4381530956 261
32.464413661 279
32.4906742263 262
32.5169347917 226
32.543195357 231
32.5694559224 204
32.5957164877 197
32.6219770531 181
32.6482376185 159
32.6744981838 177
32.7007587492 169
32.7270193145 186
32.7532798799 143
32.7795404453 166
32.8058010106 136
32.832061576 150
32.8583221413 163
32.8845827067 147
32.910843272 139
32.9371038374 156
32.9633644028 163
32.9896249681 139
33.0158855335 160
33.0421460988 137
33.0684066642 147
33.0946672295 182
33.1209277949 176
33.1471883603 158
33.1734489256 169
33.199709491 144
33.2259700563 158
33.2522306217 145
33.2784911871 168
33.3047517524 160
33.3310123178 132
33.3572728831 152
33.3835334485 156
33.4097940138 133
33.4360545792 136
33.4623151446 137
33.4885757099 146
33.5148362753 129
33.5410968406 122
33.567357406 171
33.5936179713 141
33.6198785367 132
33.6461391021 145
33.6723996674 154
33.6986602328 166
33.7249207981 121
33.7511813635 158
33.7774419289 130
33.8037024942 169
33.8299630596 167
33.8562236249 129
33.8824841903 140
33.9087447556 154
33.935005321 160
33.9612658864 158
33.9875264517 152
34.0137870171 146
34.0400475824 158
34.0663081478 179
34.0925687131 179
34.1188292785 175
34.1450898439 154
34.1713504092 157
34.1976109746 167
34.2238715399 155
34.2501321053 168
34.2763926707 173
34.302653236 166
34.3289138014 162
34.3551743667 165
34.3814349321 191
34.4076954974 176
34.4339560628 201
34.4602166282 203
34.4864771935 184
34.5127377589 179
34.5389983242 192
34.5652588896 216
34.5915194549 183
34.6177800203 195
34.6440405857 175
34.670301151 182
34.6965617164 219
34.7228222817 208
34.7490828471 195
34.7753434124 205
34.8016039778 192
34.8278645432 190
34.8541251085 206
34.8803856739 200
34.9066462392 183
34.9329068046 195
34.95916737 202
34.9854279353 184
35.0116885007 220
35.037949066 203
35.0642096314 179
35.0904701967 212
35.1167307621 192
35.1429913275 180
35.1692518928 193
35.1955124582 197
35.2217730235 195
35.2480335889 212
35.2742941542 195
35.3005547196 215
35.326815285 213
35.3530758503 213
35.3793364157 212
35.405596981 198
35.4318575464 189
35.4581181118 203
35.4843786771 218
35.5106392425 188
35.5368998078 212
35.5631603732 181
35.5894209385 190
35.6156815039 221
35.6419420693 203
35.6682026346 192
35.6944632 189
35.7207237653 168
35.7469843307 180
35.773244896 197
35.7995054614 182
35.8257660268 189
35.8520265921 167
35.8782871575 172
35.9045477228 204
35.9308082882 188
35.9570688536 174
35.9833294189 205
36.0095899843 175
36.0358505496 187
36.062111115 204
36.0883716803 169
36.1146322457 168
36.1408928111 155
36.1671533764 159
36.1934139418 164
36.2196745071 152
36.2459350725 153
36.2721956378 133
36.2984562032 143
36.3247167686 122
36.3509773339 117
36.3772378993 122
36.4034984646 124
36.42975903 139
36.4560195954 121
36.4822801607 148
36.5085407261 117
36.5348012914 131
36.5610618568 136
36.5873224221 114
36.6135829875 120
36.6398435529 141
36.6661041182 110
36.6923646836 113
36.7186252489 117
36.7448858143 134
36.7711463796 126
36.797406945 108
36.8236675104 131
36.8499280757 129
36.8761886411 113
36.9024492064 128
36.9287097718 139
36.9549703372 121
36.9812309025 121
37.0074914679 113
37.0337520332 120
37.0600125986 138
37.0862731639 116
37.1125337293 133
37.1387942947 124
37.16505486 112
37.1913154254 149
37.2175759907 140
37.2438365561 156
37.2700971214 140
37.2963576868 136
37.3226182522 145
37.3488788175 173
37.3751393829 181
37.4013999482 161
37.4276605136 166
37.4539210789 162
37.4801816443 164
37.5064422097 180
37.532702775 170
37.5589633404 211
37.5852239057 178
37.6114844711 192
37.6377450365 188
37.6640056018 192
37.6902661672 190
37.7165267325 204
37.7427872979 188
37.7690478632 207
37.7953084286 205
37.821568994 218
37.8478295593 209
37.8740901247 223
37.90035069 205
37.9266112554 213
37.9528718207 230
37.9791323861 243
38.0053929515 240
38.0316535168 209
38.0579140822 221
38.0841746475 244
38.1104352129 234
38.1366957783 251
38.1629563436 236
38.189216909 245
38.2154774743 279
38.2417380397 278
38.267998605 283
38.2942591704 271
38.3205197358 270
38.3467803011 247
38.3730408665 239
38.3993014318 259
38.4255619972 263
38.4518225625 240
38.4780831279 248
38.5043436933 261
38.5306042586 264
38.556864824 277
38.5831253893 278
38.6093859547 252
38.6356465201 281
38.6619070854 288
38.6881676508 246
38.7144282161 292
38.7406887815 263
38.7669493468 282
38.7932099122 287
38.8194704776 270
38.8457310429 246
38.8719916083 263
38.8982521736 239
38.924512739 280
38.9507733043 257
38.9770338697 270
39.0032944351 250
39.0295550004 246
39.0558155658 300
39.0820761311 266
39.1083366965 242
39.1345972619 235
39.1608578272 268
39.1871183926 255
39.2133789579 233
39.2396395233 258
39.2659000886 262
39.292160654 262
39.3184212194 279
39.3446817847 245
39.3709423501 264
39.3972029154 260
39.4234634808 246
39.4497240461 259
39.4759846115 230
39.5022451769 229
39.5285057422 222
39.5547663076 226
39.5810268729 194
39.6072874383 206
39.6335480037 200
39.659808569 205
39.6860691344 177
39.7123296997 207
39.7385902651 191
39.7648508304 189
39.7911113958 192
39.8173719612 177
39.8436325265 165
39.8698930919 127
39.8961536572 144
39.9224142226 153
39.9486747879 136
39.9749353533 132
40.0011959187 134
40.027456484 120
40.0537170494 109
40.0799776147 111
40.1062381801 119
40.1324987454 103
40.1587593108 117
40.1850198762 115
40.2112804415 108
40.2375410069 117
40.2638015722 101
40.2900621376 101
40.316322703 114
40.3425832683 107
40.3688438337 89
40.395104399 104
40.4213649644 123
40.4476255297 101
40.4738860951 115
40.5001466605 107
40.5264072258 97
40.5526677912 111
40.5789283565 120
40.6051889219 91
40.6314494872 100
40.6577100526 127
40.683970618 101
40.7102311833 110
40.7364917487 104
40.762752314 108
40.7890128794 88
40.8152734448 103
40.8415340101 92
40.8677945755 113
40.8940551408 112
40.9203157062 109
40.9465762715 83
40.9728368369 99
40.9990974023 92
41.0253579676 103
41.051618533 89
41.0778790983 103
41.1041396637 117
41.130400229 93
41.1566607944 93
41.1829213598 115
41.2091819251 112
41.2354424905 95
41.2617030558 116
41.2879636212 115
41.3142241866 100
41.3404847519 82
41.3667453173 89
41.3930058826 107
41.419266448 98
41.4455270133 90
41.4717875787 84
41.4980481441 88
41.5243087094 110
41.5505692748 89
41.5768298401 121
41.6030904055 96
41.6293509708 83
41.6556115362 113
41.6818721016 102
41.7081326669 97
41.7343932323 112
41.7606537976 102
41.786914363 93
41.8131749284 99
41.8394354937 100
41.8656960591 104
41.8919566244 109
41.9182171898 99
41.9444777551 93
41.9707383205 90
41.9969988859 77
42.0232594512 116
42.0495200166 85
42.0757805819 86
42.1020411473 125
42.1283017126 97
42.154562278 76
42.1808228434 106
42.2070834087 97
42.2333439741 96
42.2596045394 92
42.2858651048 104
42.3121256702 113
42.3383862355 82
42.3646468009 92
42.3909073662 98
42.4171679316 104
42.4434284969 93
42.4696890623 99
42.4959496277 100
42.522210193 91
42.5484707584 93
42.5747313237 105
42.6009918891 91
42.6272524544 91
42.6535130198 83
42.6797735852 84
42.7060341505 100
42.7322947159 102
42.7585552812 95
42.7848158466 87
42.811076412 97
42.8373369773 116
42.8635975427 92
42.889858108 87
42.9161186734 106
42.9423792387 95
42.9686398041 98
42.9949003695 101
43.0211609348 111
43.0474215002 108
43.0736820655 81
43.0999426309 99
43.1262031962 109
43.1524637616 89
43.178724327 112
43.2049848923 105
43.2312454577 108
43.257506023 92
43.2837665884 118
43.3100271537 108
43.3362877191 102
43.3625482845 105
43.3888088498 114
43.4150694152 118
43.4413299805 117
43.4675905459 126
43.4938511113 109
43.5201116766 119
43.546372242 127
43.5726328073 125
43.5988933727 110
43.625153938 108
43.6514145034 119
43.6776750688 124
43.7039356341 113
43.7301961995 148
43.7564567648 126
43.7827173302 123
43.8089778955 161
43.8352384609 120
43.8614990263 134
43.8877595916 129
43.914020157 135
43.9402807223 141
43.9665412877 144
43.9928018531 139
44.0190624184 149
44.0453229838 139
44.0715835491 135
44.0978441145 155
44.1241046798 158
44.1503652452 179
44.1766258106 166
44.2028863759 152
44.2291469413 162
44.2554075066 185
44.281668072 160
44.3079286373 154
44.3341892027 157
44.3604497681 156
44.3867103334 153
44.4129708988 164
44.4392314641 140
44.4654920295 156
44.4917525949 170
44.5180131602 125
44.5442737256 181
44.5705342909 150
44.5967948563 166
44.6230554216 155
44.649315987 187
44.6755765524 175
44.7018371177 183
44.7280976831 176
44.7543582484 170
44.7806188138 161
44.8068793791 158
44.8331399445 183
44.8594005099 202
44.8856610752 159
44.9119216406 174
44.9381822059 192
44.9644427713 177
44.9907033367 179
45.016963902 185
45.0432244674 182
45.0694850327 161
45.0957455981 183
45.1220061634 193
45.1482667288 165
45.1745272942 171
45.2007878595 197
45.2270484249 186
45.2533089902 184
45.2795695556 175
45.3058301209 186
45.3320906863 187
45.3583512517 161
45.384611817 170
45.4108723824 173
45.4371329477 155
45.4633935131 173
45.4896540785 145
45.5159146438 168
45.5421752092 188
45.5684357745 179
45.5946963399 162
45.6209569052 186
45.6472174706 137
45.673478036 169
45.6997386013 146
45.7259991667 148
45.752259732 168
45.7785202974 188
45.8047808627 173
45.8310414281 158
45.8573019935 148
45.8835625588 144
45.9098231242 161
45.9360836895 149
45.9623442549 148
45.9886048202 157
46.0148653856 172
46.041125951 152
46.0673865163 160
46.0936470817 158
46.119907647 149
46.1461682124 158
46.1724287778 134
46.1986893431 145
46.2249499085 133
46.2512104738 135
46.2774710392 109
46.3037316045 145
46.3299921699 131
46.3562527353 127
46.3825133006 104
46.408773866 123
46.4350344313 113
46.4612949967 106
46.487555562 129
46.5138161274 96
46.5400766928 115
46.5663372581 124
46.5925978235 115
46.6188583888 106
46.6451189542 107
46.6713795196 110
46.6976400849 119
46.7239006503 85
46.7501612156 108
46.776421781 108
46.8026823463 116
46.8289429117 121
46.8552034771 114
46.8814640424 121
46.9077246078 92
46.9339851731 93
46.9602457385 117
46.9865063038 104
47.0127668692 112
47.0390274346 117
47.0652879999 104
47.0915485653 126
47.1178091306 101
47.144069696 117
47.1703302614 117
47.1965908267 120
47.2228513921 99
47.2491119574 137
47.2753725228 99
47.3016330881 138
47.3278936535 106
47.3541542189 99
47.3804147842 130
47.4066753496 112
47.4329359149 118
47.4591964803 119
47.4854570456 115
47.511717611 116
47.5379781764 115
47.5642387417 131
47.5904993071 130
47.6167598724 121
47.6430204378 119
47.6692810032 101
47.6955415685 109
47.7218021339 121
47.7480626992 121
47.7743232646 118
47.8005838299 101
47.8268443953 119
47.8531049607 122
47.879365526 128
47.9056260914 104
47.9318866567 106
47.9581472221 112
47.9844077874 129
48.0106683528 112
48.0369289182 112
48.0631894835 117
48.0894500489 137
48.1157106142 127
48.1419711796 96
48.168231745 120
48.1944923103 99
48.2207528757 115
48.247013441 124
48.2732740064 117
48.2995345717 106
48.3257951371 126
48.3520557025 118
48.3783162678 113
48.4045768332 123
48.4308373985 112
48.4570979639 110
48.4833585292 116
48.5096190946 113
48.53587966 102
48.5621402253 100
48.5884007907 105
48.614661356 99
48.6409219214 117
48.6671824867 126
48.6934430521 107
48.7197036175 131
48.7459641828 125
48.7722247482 99
48.7984853135 125
48.8247458789 119
48.8510064443 134
48.8772670096 112
48.903527575 131
48.9297881403 104
48.9560487057 127
48.982309271 101
49.0085698364 121
49.0348304018 127
49.0610909671 122
49.0873515325 124
49.1136120978 128
49.1398726632 114
49.1661332285 127
49.1923937939 116
49.2186543593 120
49.2449149246 126
49.27117549 125
49.2974360553 119
49.3236966207 127
49.3499571861 110
49.3762177514 128
49.4024783168 134
49.4287388821 105
49.4549994475 114
49.4812600128 127
49.5075205782 126
49.5337811436 115
49.5600417089 123
49.5863022743 130
49.6125628396 137
49.638823405 137
49.6650839703 133
49.6913445357 156
49.7176051011 119
49.7438656664 152
49.7701262318 122
49.7963867971 102
49.8226473625 114
49.8489079279 144
49.8751684932 144
49.9014290586 133
49.9276896239 148
49.9539501893 124
49.9802107546 144
50.00647132 115

