10.011630280 366.0
10.037890845 399.0
10.064151411 404.0
10.090411976 447.0
10.116672541 387.0
10.142933107 386.0
10.169193672 359.0
10.195454238 373.0
10.221714803 372.0
10.247975368 431.0
10.274235934 360.0
10.300496499 391.0
10.326757064 346.0
10.353017630 413.0
10.379278195 395.0
10.405538760 356.0
10.431799326 373.0
10.458059891 391.0
10.484320456 331.0
10.510581022 381.0
10.536841587 373.0
10.563102153 347.0
10.589362718 368.0
10.615623283 374.0
10.641883849 386.0
10.668144414 343.0
10.694404979 366.0
10.720665545 378.0
10.746926110 348.0
10.773186675 362.0
10.799447241 368.0
10.825707806 367.0
10.851968371 355.0
10.878228937 333.0
10.904489502 338.0
10.930750068 350.0
10.957010633 380.0
10.983271198 373.0
11.009531764 353.0
11.035792329 377.0
11.062052894 334.0
11.088313460 339.0
11.114574025 367.0
11.140834590 353.0
11.167095156 338.0
11.193355721 381.0
11.219616286 382.0
11.245876852 351.0
11.272137417 377.0
11.298397983 357.0
11.324658548 362.0
11.350919113 369.0
11.377179679 345.0
11.403440244 317.0
11.429700809 377.0
11.455961375 368.0
11.482221940 356.0
11.508482505 361.0
11.534743071 333.0
11.561003636 362.0
11.587264201 338.0
11.613524767 322.0
11.639785332 313.0
11.666045898 313.0
11.692306463 326.0
11.718567028 363.0
11.744827594 337.0
11.771088159 341.0
11.797348724 340.0
11.823609290 287.0
11.849869855 333.0
11.876130420 351.0
11.902390986 358.0
11.928651551 308.0
11.954912116 333.0
11.981172682 315.0
12.007433247 305.0
12.033693813 316.0
12.059954378 329.0
12.086214943 324.0
12.112475509 319.0
12.138736074 312.0
12.164996639 307.0
12.191257205 370.0
12.217517770 362.0
12.243778335 316.0
12.270038901 321.0
12.296299466 371.0
12.322560031 353.0
12.348820597 347.0
12.375081162 385.0
12.401341728 373.0
12.427602293 356.0
12.453862858 340.0
12.480123424 354.0
12.506383989 351.0
12.532644554 352.0
12.558905120 343.0
12.585165685 325.0
12.611426250 378.0
12.637686816 325.0
12.663947381 343.0
12.690207947 371.0
12.716468512 402.0
12.742729077 359.0
12.768989643 359.0
12.795250208 319.0
12.821510773 356.0
12.847771339 355.0
12.874031904 350.0
12.900292469 356.0
12.926553035 288.0
12.952813600 318.0
12.979074165 321.0
13.005334731 343.0
13.031595296 334.0
13.057855862 332.0
13.084116427 338.0
13.110376992 313.0
13.136637558 321.0
13.162898123 306.0
13.189158688 306.0
13.215419254 347.0
13.241679819 308.0
13.267940384 313.0
13.294200950 287.0
13.320461515 271.0
13.346722080 306.0
13.372982646 329.0
13.399243211 323.0
13.425503777 300.0
13.451764342 314.0
13.478024907 308.0
13.504285473 299.0
13.530546038 290.0
13.556806603 304.0
13.583067169 283.0
13.609327734 320.0
13.635588299 307.0
13.661848865 297.0
13.688109430 319.0
13.714369995 289.0
13.740630561 307.0
13.766891126 269.0
13.793151692 311.0
13.819412257 287.0
13.845672822 292.0
13.871933388 309.0
13.898193953 303.0
13.924454518 270.0
13.950715084 282.0
13.976975649 295.0
14.003236214 277.0
14.029496780 274.0
14.055757345 289.0
14.082017910 309.0
14.108278476 318.0
14.134539041 285.0
14.160799607 297.0
14.187060172 283.0
14.213320737 282.0
14.239581303 307.0
14.265841868 269.0
14.292102433 319.0
14.318362999 311.0
14.344623564 297.0
14.370884129 334.0
14.397144695 309.0
14.423405260 343.0
14.449665825 304.0
14.475926391 323.0
14.502186956 357.0
14.528447522 320.0
14.554708087 295.0
14.580968652 318.0
14.607229218 339.0
14.633489783 367.0
14.659750348 342.0
14.686010914 412.0
14.712271479 456.0
14.738532044 460.0
14.764792610 490.0
14.791053175 484.0
14.817313740 539.0
14.843574306 562.0
14.869834871 611.0
14.896095437 676.0
14.922356002 701.0
14.948616567 714.0
14.974877133 729.0
15.001137698 791.0
15.027398263 784.0
15.053658829 748.0
15.079919394 817.0
15.106179959 825.0
15.132440525 807.0
15.158701090 845.0
15.184961655 832.0
15.211222221 843.0
15.237482786 881.0
15.263743352 924.0
15.290003917 858.0
15.316264482 896.0
15.342525048 865.0
15.368785613 875.0
15.395046178 907.0
15.421306744 815.0
15.447567309 815.0
15.473827874 860.0
15.500088440 853.0
15.526349005 831.0
15.552609571 832.0
15.578870136 843.0
15.605130701 834.0
15.631391267 798.0
15.657651832 786.0
15.683912397 734.0
15.710172963 720.0
15.736433528 684.0
15.762694093 664.0
15.788954659 584.0
15.815215224 587.0
15.841475789 535.0
15.867736355 433.0
15.893996920 432.0
15.920257486 374.0
15.946518051 344.0
15.972778616 279.0
15.999039182 302.0
16.025299747 328.0
16.051560312 319.0
16.077820878 305.0
16.104081443 293.0
16.130342008 272.0
16.156602574 276.0
16.182863139 291.0
16.209123704 281.0
16.235384270 302.0
16.261644835 275.0
16.287905401 266.0
16.314165966 307.0
16.340426531 270.0
16.366687097 278.0
16.392947662 305.0
16.419208227 289.0
16.445468793 293.0
16.471729358 291.0
16.497989923 235.0
16.524250489 255.0
16.550511054 252.0
16.576771619 251.0
16.603032185 277.0
16.629292750 275.0
16.655553316 245.0
16.681813881 238.0
16.708074446 271.0
16.734335012 242.0
16.760595577 264.0
16.786856142 279.0
16.813116708 260.0
16.839377273 271.0
16.865637838 282.0
16.891898404 275.0
16.918158969 292.0
16.944419534 257.0
16.970680100 264.0
16.996940665 287.0
17.023201231 284.0
17.049461796 281.0
17.075722361 249.0
17.101982927 266.0
17.128243492 268.0
17.154504057 296.0
17.180764623 270.0
17.207025188 271.0
17.233285753 299.0
17.259546319 252.0
17.285806884 267.0
17.312067449 275.0
17.338328015 264.0
17.364588580 271.0
17.390849146 276.0
17.417109711 267.0
17.443370276 272.0
17.469630842 257.0
17.495891407 273.0
17.522151972 293.0
17.548412538 268.0
17.574673103 245.0
17.600933668 290.0
17.627194234 273.0
17.653454799 235.0
17.679715364 258.0
17.705975930 279.0
17.732236495 289.0
17.758497061 255.0
17.784757626 258.0
17.811018191 273.0
17.837278757 273.0
17.863539322 280.0
17.889799887 278.0
17.916060453 270.0
17.942321018 288.0
17.968581583 291.0
17.994842149 247.0
18.021102714 309.0
18.047363280 253.0
18.073623845 277.0
18.099884410 300.0
18.126144976 295.0
18.152405541 273.0
18.178666106 262.0
18.204926672 276.0
18.231187237 269.0
18.257447802 242.0
18.283708368 252.0
18.309968933 239.0
18.336229498 273.0
18.362490064 273.0
18.388750629 294.0
18.415011195 267.0
18.441271760 249.0
18.467532325 279.0
18.493792891 273.0
18.520053456 283.0
18.546314021 307.0
18.572574587 261.0
18.598835152 260.0
18.625095717 279.0
18.651356283 275.0
18.677616848 322.0
18.703877413 302.0
18.730137979 275.0
18.756398544 320.0
18.782659110 296.0
18.808919675 248.0
18.835180240 285.0
18.861440806 302.0
18.887701371 255.0
18.913961936 295.0
18.940222502 301.0
18.966483067 267.0
18.992743632 272.0
19.019004198 266.0
19.045264763 266.0
19.071525328 282.0
19.097785894 277.0
19.124046459 297.0
19.150307025 326.0
19.176567590 277.0
19.202828155 317.0
19.229088721 304.0
19.255349286 268.0
19.281609851 280.0
19.307870417 334.0
19.334130982 295.0
19.360391547 302.0
19.386652113 305.0
19.412912678 303.0
19.439173243 318.0
19.465433809 288.0
19.491694374 297.0
19.517954940 291.0
19.544215505 281.0
19.570476070 285.0
19.596736636 309.0
19.622997201 304.0
19.649257766 292.0
19.675518332 322.0
19.701778897 301.0
19.728039462 313.0
19.754300028 291.0
19.780560593 323.0
19.806821158 309.0
19.833081724 306.0
19.859342289 303.0
19.885602855 323.0
19.911863420 317.0
19.938123985 293.0
19.964384551 283.0
19.990645116 298.0
20.016905681 310.0
20.043166247 310.0
20.069426812 303.0
20.095687377 295.0
20.121947943 299.0
20.148208508 313.0
20.174469073 321.0
20.200729639 335.0
20.226990204 294.0
20.253250770 310.0
20.279511335 335.0
20.305771900 272.0
20.332032466 323.0
20.358293031 301.0
20.384553596 307.0
20.410814162 300.0
20.437074727 316.0
20.463335292 328.0
20.489595858 295.0
20.515856423 330.0
20.542116988 302.0
20.568377554 336.0
20.594638119 289.0
20.620898685 323.0
20.647159250 316.0
20.673419815 316.0
20.699680381 371.0
20.725940946 351.0
20.752201511 335.0
20.778462077 332.0
20.804722642 328.0
20.830983207 367.0
20.857243773 389.0
20.883504338 362.0
20.909764904 396.0
20.936025469 413.0
20.962286034 394.0
20.988546600 460.0
21.014807165 420.0
21.041067730 455.0
21.067328296 439.0
21.093588861 478.0
21.119849426 482.0
21.146109992 497.0
21.172370557 488.0
21.198631122 563.0
21.224891688 564.0
21.251152253 541.0
21.277412819 521.0
21.303673384 556.0
21.329933949 550.0
21.356194515 597.0
21.382455080 572.0
21.408715645 571.0
21.434976211 601.0
21.461236776 588.0
21.487497341 583.0
21.513757907 668.0
21.540018472 632.0
21.566279037 608.0
21.592539603 623.0
21.618800168 635.0
21.645060734 680.0
21.671321299 598.0
21.697581864 608.0
21.723842430 615.0
21.750102995 643.0
21.776363560 650.0
21.802624126 627.0
21.828884691 620.0
21.855145256 609.0
21.881405822 629.0
21.907666387 601.0
21.933926952 611.0
21.960187518 598.0
21.986448083 619.0
22.012708649 617.0
22.038969214 641.0
22.065229779 576.0
22.091490345 571.0
22.117750910 586.0
22.144011475 576.0
22.170272041 636.0
22.196532606 587.0
22.222793171 599.0
22.249053737 588.0
22.275314302 564.0
22.301574867 512.0
22.327835433 541.0
22.354095998 475.0
22.380356564 449.0
22.406617129 493.0
22.432877694 469.0
22.459138260 420.0
22.485398825 405.0
22.511659390 403.0
22.537919956 349.0
22.564180521 357.0
22.590441086 324.0
22.616701652 313.0
22.642962217 305.0
22.669222782 312.0
22.695483348 306.0
22.721743913 288.0
22.748004479 298.0
22.774265044 277.0
22.800525609 286.0
22.826786175 260.0
22.853046740 289.0
22.879307305 282.0
22.905567871 330.0
22.931828436 267.0
22.958089001 309.0
22.984349567 303.0
23.010610132 290.0
23.036870697 287.0
23.063131263 242.0
23.089391828 242.0
23.115652394 265.0
23.141912959 276.0
23.168173524 272.0
23.194434090 270.0
23.220694655 269.0
23.246955220 290.0
23.273215786 278.0
23.299476351 257.0
23.325736916 281.0
23.351997482 282.0
23.378258047 273.0
23.404518613 282.0
23.430779178 283.0
23.457039743 265.0
23.483300309 304.0
23.509560874 263.0
23.535821439 268.0
23.562082005 242.0
23.588342570 258.0
23.614603135 253.0
23.640863701 255.0
23.667124266 274.0
23.693384831 261.0
23.719645397 303.0
23.745905962 296.0
23.772166528 283.0
23.798427093 281.0
23.824687658 289.0
23.850948224 289.0
23.877208789 306.0
23.903469354 300.0
23.929729920 268.0
23.955990485 285.0
23.982251050 264.0
24.008511616 304.0
24.034772181 300.0
24.061032746 259.0
24.087293312 325.0
24.113553877 309.0
24.139814443 290.0
24.166075008 270.0
24.192335573 293.0
24.218596139 287.0
24.244856704 277.0
24.271117269 259.0
24.297377835 275.0
24.323638400 237.0
24.349898965 286.0
24.376159531 318.0
24.402420096 272.0
24.428680661 264.0
24.454941227 271.0
24.481201792 286.0
24.507462358 285.0
24.533722923 276.0
24.559983488 272.0
24.586244054 300.0
24.612504619 247.0
24.638765184 248.0
24.665025750 259.0
24.691286315 258.0
24.717546880 279.0
24.743807446 263.0
24.770068011 241.0
24.796328576 273.0
24.822589142 252.0
24.848849707 278.0
24.875110273 284.0
24.901370838 293.0
24.927631403 269.0
24.953891969 296.0
24.980152534 254.0
25.006413099 259.0
25.032673665 245.0
25.058934230 263.0
25.085194795 235.0
25.111455361 280.0
25.137715926 247.0
25.163976491 260.0
25.190237057 273.0
25.216497622 237.0
25.242758188 241.0
25.269018753 229.0
25.295279318 249.0
25.321539884 206.0
25.347800449 217.0
25.374061014 233.0
25.400321580 236.0
25.426582145 239.0
25.452842710 259.0
25.479103276 243.0
25.505363841 221.0
25.531624406 247.0
25.557884972 227.0
25.584145537 218.0
25.610406103 236.0
25.636666668 230.0
25.662927233 238.0
25.689187799 225.0
25.715448364 250.0
25.741708929 229.0
25.767969495 227.0
25.794230060 246.0
25.820490625 248.0
25.846751191 237.0
25.873011756 273.0
25.899272321 214.0
25.925532887 216.0
25.951793452 238.0
25.978054018 238.0
26.004314583 243.0
26.030575148 225.0
26.056835714 240.0
26.083096279 225.0
26.109356844 215.0
26.135617410 238.0
26.161877975 237.0
26.188138540 225.0
26.214399106 239.0
26.240659671 221.0
26.266920237 194.0
26.293180802 226.0
26.319441367 250.0
26.345701933 237.0
26.371962498 230.0
26.398223063 213.0
26.424483629 210.0
26.450744194 222.0
26.477004759 195.0
26.503265325 194.0
26.529525890 200.0
26.555786455 186.0
26.582047021 205.0
26.608307586 181.0
26.634568152 200.0
26.660828717 221.0
26.687089282 208.0
26.713349848 214.0
26.739610413 201.0
26.765870978 211.0
26.792131544 207.0
26.818392109 221.0
26.844652674 198.0
26.870913240 204.0
26.897173805 210.0
26.923434370 196.0
26.949694936 200.0
26.975955501 194.0
27.002216067 192.0
27.028476632 194.0
27.054737197 190.0
27.080997763 193.0
27.107258328 181.0
27.133518893 196.0
27.159779459 199.0
27.186040024 200.0
27.212300589 203.0
27.238561155 191.0
27.264821720 215.0
27.291082285 184.0
27.317342851 188.0
27.343603416 200.0
27.369863982 184.0
27.396124547 202.0
27.422385112 204.0
27.448645678 204.0
27.474906243 203.0
27.501166808 207.0
27.527427374 213.0
27.553687939 194.0
27.579948504 198.0
27.606209070 183.0
27.632469635 207.0
27.658730200 204.0
27.684990766 199.0
27.711251331 224.0
27.737511897 165.0
27.763772462 198.0
27.790033027 193.0
27.816293593 207.0
27.842554158 207.0
27.868814723 217.0
27.895075289 222.0
27.921335854 184.0
27.947596419 206.0
27.973856985 226.0
28.000117550 187.0
28.026378115 196.0
28.052638681 202.0
28.078899246 202.0
28.105159812 224.0
28.131420377 218.0
28.157680942 211.0
28.183941508 204.0
28.210202073 197.0
28.236462638 208.0
28.262723204 175.0
28.288983769 207.0
28.315244334 202.0
28.341504900 201.0
28.367765465 193.0
28.394026030 204.0
28.420286596 203.0
28.446547161 207.0
28.472807727 189.0
28.499068292 198.0
28.525328857 218.0
28.551589423 188.0
28.577849988 234.0
28.604110553 206.0
28.630371119 197.0
28.656631684 181.0
28.682892249 226.0
28.709152815 218.0
28.735413380 202.0
28.761673946 184.0
28.787934511 215.0
28.814195076 199.0
28.840455642 220.0
28.866716207 193.0
28.892976772 194.0
28.919237338 178.0
28.945497903 197.0
28.971758468 211.0
28.998019034 190.0
29.024279599 230.0
29.050540164 189.0
29.076800730 221.0
29.103061295 208.0
29.129321861 196.0
29.155582426 243.0
29.181842991 215.0
29.208103557 204.0
29.234364122 209.0
29.260624687 212.0
29.286885253 234.0
29.313145818 221.0
29.339406383 190.0
29.365666949 232.0
29.391927514 241.0
29.418188079 212.0
29.444448645 223.0
29.470709210 226.0
29.496969776 193.0
29.523230341 246.0
29.549490906 214.0
29.575751472 268.0
29.602012037 229.0
29.628272602 253.0
29.654533168 298.0
29.680793733 289.0
29.707054298 279.0
29.733314864 309.0
29.759575429 305.0
29.785835994 311.0
29.812096560 305.0
29.838357125 332.0
29.864617691 392.0
29.890878256 319.0
29.917138821 351.0
29.943399387 416.0
29.969659952 405.0
29.995920517 412.0
30.022181083 421.0
30.048441648 485.0
30.074702213 522.0
30.100962779 456.0
30.127223344 530.0
30.153483909 509.0
30.179744475 519.0
30.206005040 579.0
30.232265606 576.0
30.258526171 596.0
30.284786736 642.0
30.311047302 638.0
30.337307867 675.0
30.363568432 685.0
30.389828998 707.0
30.416089563 721.0
30.442350128 711.0
30.468610694 752.0
30.494871259 757.0
30.521131824 755.0
30.547392390 759.0
30.573652955 767.0
30.599913521 735.0
30.626174086 787.0
30.652434651 777.0
30.678695217 767.0
30.704955782 740.0
30.731216347 801.0
30.757476913 770.0
30.783737478 750.0
30.809998043 807.0
30.836258609 790.0
30.862519174 807.0
30.888779739 845.0
30.915040305 828.0
30.941300870 848.0
30.967561436 835.0
30.993822001 812.0
31.020082566 822.0
31.046343132 863.0
31.072603697 846.0
31.098864262 799.0
31.125124828 837.0
31.151385393 821.0
31.177645958 837.0
31.203906524 775.0
31.230167089 765.0
31.256427654 859.0
31.282688220 808.0
31.308948785 798.0
31.335209351 835.0
31.361469916 744.0
31.387730481 796.0
31.413991047 783.0
31.440251612 819.0
31.466512177 782.0
31.492772743 721.0
31.519033308 775.0
31.545293873 736.0
31.571554439 719.0
31.597815004 779.0
31.624075570 734.0
31.650336135 682.0
31.676596700 690.0
31.702857266 698.0
31.729117831 673.0
31.755378396 623.0
31.781638962 637.0
31.807899527 646.0
31.834160092 589.0
31.860420658 576.0
31.886681223 597.0
31.912941788 561.0
31.939202354 516.0
31.965462919 435.0
31.991723485 388.0
32.017984050 408.0
32.044244615 388.0
32.070505181 335.0
32.096765746 315.0
32.123026311 289.0
32.149286877 237.0
32.175547442 251.0
32.201808007 224.0
32.228068573 189.0
32.254329138 173.0
32.280589703 209.0
32.306850269 152.0
32.333110834 199.0
32.359371400 158.0
32.385631965 169.0
32.411892530 148.0
32.438153096 164.0
32.464413661 157.0
32.490674226 170.0
32.516934792 154.0
32.543195357 179.0
32.569455922 204.0
32.595716488 180.0
32.621977053 127.0
32.648237618 161.0
32.674498184 167.0
32.700758749 151.0
32.727019315 143.0
32.753279880 159.0
32.779540445 157.0
32.805801011 173.0
32.832061576 166.0
32.858322141 163.0
32.884582707 141.0
32.910843272 152.0
32.937103837 138.0
32.963364403 161.0
32.989624968 147.0
33.015885533 127.0
33.042146099 176.0
33.068406664 146.0
33.094667230 184.0
33.120927795 161.0
33.147188360 147.0
33.173448926 166.0
33.199709491 164.0
33.225970056 181.0
33.252230622 159.0
33.278491187 182.0
33.304751752 172.0
33.331012318 152.0
33.357272883 158.0
33.383533448 181.0
33.409794014 163.0
33.436054579 154.0
33.462315145 171.0
33.488575710 186.0
33.514836275 157.0
33.541096841 143.0
33.567357406 184.0
33.593617971 168.0
33.619878537 169.0
33.646139102 211.0
33.672399667 178.0
33.698660233 163.0
33.724920798 214.0
33.751181363 178.0
33.777441929 154.0
33.803702494 193.0
33.829963060 192.0
33.856223625 207.0
33.882484190 193.0
33.908744756 180.0
33.935005321 188.0
33.961265886 196.0
33.987526452 212.0
34.013787017 215.0
34.040047582 206.0
34.066308148 204.0
34.092568713 221.0
34.118829279 197.0
34.145089844 173.0
34.171350409 189.0
34.197610975 213.0
34.223871540 201.0
34.250132105 197.0
34.276392671 224.0
34.302653236 208.0
34.328913801 222.0
34.355174367 204.0
34.381434932 216.0
34.407695497 231.0
34.433956063 228.0
34.460216628 202.0
34.486477194 233.0
34.512737759 223.0
34.538998324 231.0
34.565258890 211.0
34.591519455 199.0
34.617780020 219.0
34.644040586 215.0
34.670301151 204.0
34.696561716 215.0
34.722822282 208.0
34.749082847 242.0
34.775343412 181.0
34.801603978 222.0
34.827864543 236.0
34.854125109 209.0
34.880385674 211.0
34.906646239 240.0
34.932906805 225.0
34.959167370 222.0
34.985427935 238.0
35.011688501 211.0
35.037949066 212.0
35.064209631 211.0
35.090470197 214.0
35.116730762 225.0
35.142991327 204.0
35.169251893 204.0
35.195512458 209.0
35.221773024 199.0
35.248033589 184.0
35.274294154 231.0
35.300554720 204.0
35.326815285 211.0
35.353075850 193.0
35.379336416 201.0
35.405596981 203.0
35.431857546 197.0
35.458118112 224.0
35.484378677 165.0
35.510639242 215.0
35.536899808 173.0
35.563160373 187.0
35.589420939 182.0
35.615681504 197.0
35.641942069 171.0
35.668202635 171.0
35.694463200 186.0
35.720723765 171.0
35.746984331 176.0
35.773244896 185.0
35.799505461 177.0
35.825766027 144.0
35.852026592 157.0
35.878287157 134.0
35.904547723 156.0
35.930808288 146.0
35.957068854 134.0
35.983329419 149.0
36.009589984 140.0
36.035850550 114.0
36.062111115 122.0
36.088371680 143.0
36.114632246 128.0
36.140892811 136.0
36.167153376 133.0
36.193413942 139.0
36.219674507 114.0
36.245935072 147.0
36.272195638 136.0
36.298456203 128.0
36.324716769 121.0
36.350977334 141.0
36.377237899 118.0
36.403498465 135.0
36.429759030 132.0
36.456019595 129.0
36.482280161 163.0
36.508540726 142.0
36.534801291 143.0
36.561061857 153.0
36.587322422 131.0
36.613582987 135.0
36.639843553 127.0
36.666104118 158.0
36.692364684 143.0
36.718625249 141.0
36.744885814 145.0
36.771146380 162.0
36.797406945 148.0
36.823667510 131.0
36.849928076 165.0
36.876188641 168.0
36.902449206 164.0
36.928709772 188.0
36.954970337 155.0
36.981230903 175.0
37.007491468 178.0
37.033752033 186.0
37.060012599 197.0
37.086273164 187.0
37.112533729 227.0
37.138794295 193.0
37.165054860 198.0
37.191315425 202.0
37.217575991 183.0
37.243836556 185.0
37.270097121 220.0
37.296357687 205.0
37.322618252 214.0
37.348878818 211.0
37.375139383 224.0
37.401399948 219.0
37.427660514 217.0
37.453921079 219.0
37.480181644 230.0
37.506442210 215.0
37.532702775 215.0
37.558963340 234.0
37.585223906 244.0
37.611484471 219.0
37.637745036 255.0
37.664005602 245.0
37.690266167 275.0
37.716526733 263.0
37.742787298 228.0
37.769047863 244.0
37.795308429 257.0
37.821568994 258.0
37.847829559 264.0
37.874090125 252.0
37.900350690 265.0
37.926611255 230.0
37.952871821 259.0
37.979132386 267.0
38.005392951 235.0
38.031653517 277.0
38.057914082 253.0
38.084174648 247.0
38.110435213 259.0
38.136695778 273.0
38.162956344 237.0
38.189216909 251.0
38.215477474 273.0
38.241738040 253.0
38.267998605 260.0
38.294259170 262.0
38.320519736 246.0
38.346780301 291.0
38.373040866 277.0
38.399301432 272.0
38.425561997 264.0
38.451822563 239.0
38.478083128 251.0
38.504343693 248.0
38.530604259 255.0
38.556864824 273.0
38.583125389 268.0
38.609385955 257.0
38.635646520 276.0
38.661907085 248.0
38.688167651 260.0
38.714428216 228.0
38.740688781 242.0
38.766949347 247.0
38.793209912 258.0
38.819470478 226.0
38.845731043 235.0
38.871991608 219.0
38.898252174 257.0
38.924512739 243.0
38.950773304 216.0
38.977033870 249.0
39.003294435 213.0
39.029555000 239.0
39.055815566 231.0
39.082076131 243.0
39.108336696 224.0
39.134597262 224.0
39.160857827 221.0
39.187118393 202.0
39.213378958 203.0
39.239639523 232.0
39.265900089 227.0
39.292160654 175.0
39.318421219 187.0
39.344681785 177.0
39.370942350 172.0
39.397202915 153.0
39.423463481 167.0
39.449724046 158.0
39.475984612 143.0
39.502245177 134.0
39.528505742 146.0
39.554766308 141.0
39.581026873 117.0
39.607287438 127.0
39.633548004 122.0
39.659808569 124.0
39.686069134 113.0
39.712329700 104.0
39.738590265 109.0
39.764850830 106.0
39.791111396 113.0
39.817371961 117.0
39.843632527 121.0
39.869893092 109.0
39.896153657 146.0
39.922414223 106.0
39.948674788 122.0
39.974935353 104.0
40.001195919 117.0
40.027456484 107.0
40.053717049 98.0
40.079977615 92.0
40.106238180 108.0
40.132498745 103.0
40.158759311 116.0
40.185019876 124.0
40.211280442 105.0
40.237541007 89.0
40.263801572 83.0
40.290062138 114.0
40.316322703 91.0
40.342583268 100.0
40.368843834 107.0
40.395104399 109.0
40.421364964 109.0
40.447625530 106.0
40.473886095 109.0
40.500146660 109.0
40.526407226 102.0
40.552667791 94.0
40.578928357 98.0
40.605188922 116.0
40.631449487 99.0
40.657710053 96.0
40.683970618 103.0
40.710231183 112.0
40.736491749 123.0
40.762752314 100.0
40.789012879 106.0
40.815273445 108.0
40.841534010 116.0
40.867794575 102.0
40.894055141 105.0
40.920315706 88.0
40.946576272 108.0
40.972836837 91.0
40.999097402 98.0
41.025357968 89.0
41.051618533 122.0
41.077879098 111.0
41.104139664 102.0
41.130400229 99.0
41.156660794 111.0
41.182921360 112.0
41.209181925 112.0
41.235442490 95.0
41.261703056 125.0
41.287963621 97.0
41.314224187 102.0
41.340484752 109.0
41.366745317 110.0
41.393005883 100.0
41.419266448 100.0
41.445527013 97.0
41.471787579 118.0
41.498048144 94.0
41.524308709 113.0
41.550569275 78.0
41.576829840 92.0
41.603090405 105.0
41.629350971 97.0
41.655611536 104.0
41.681872102 87.0
41.708132667 80.0
41.734393232 99.0
41.760653798 110.0
41.786914363 105.0
41.813174928 94.0
41.839435494 99.0
41.865696059 106.0
41.891956624 98.0
41.918217190 93.0
41.944477755 97.0
41.970738320 94.0
41.996998886 86.0
42.023259451 113.0
42.049520017 96.0
42.075780582 106.0
42.102041147 97.0
42.128301713 89.0
42.154562278 100.0
42.180822843 84.0
42.207083409 101.0
42.233343974 106.0
42.259604539 112.0
42.285865105 105.0
42.312125670 114.0
42.338386236 115.0
42.364646801 104.0
42.390907366 117.0
42.417167932 94.0
42.443428497 96.0
42.469689062 106.0
42.495949628 124.0
42.522210193 101.0
42.548470758 111.0
42.574731324 111.0
42.600991889 83.0
42.627252454 115.0
42.653513020 114.0
42.679773585 89.0
42.706034151 103.0
42.732294716 127.0
42.758555281 124.0
42.784815847 126.0
42.811076412 117.0
42.837336977 136.0
42.863597543 124.0
42.889858108 120.0
42.916118673 122.0
42.942379239 139.0
42.968639804 102.0
42.994900369 112.0
43.021160935 125.0
43.047421500 121.0
43.073682066 132.0
43.099942631 121.0
43.126203196 132.0
43.152463762 112.0
43.178724327 118.0
43.204984892 136.0
43.231245458 144.0
43.257506023 144.0
43.283766588 147.0
43.310027154 164.0
43.336287719 147.0
43.362548284 145.0
43.388808850 132.0
43.415069415 142.0
43.441329981 178.0
43.467590546 173.0
43.493851111 180.0
43.520111677 154.0
43.546372242 157.0
43.572632807 165.0
43.598893373 131.0
43.625153938 177.0
43.651414503 163.0
43.677675069 185.0
43.703935634 139.0
43.730196199 164.0
43.756456765 155.0
43.782717330 160.0
43.808977896 170.0
43.835238461 152.0
43.861499026 181.0
43.887759592 167.0
43.914020157 185.0
43.940280722 167.0
43.966541288 174.0
43.992801853 170.0
44.019062418 185.0
44.045322984 163.0
44.071583549 190.0
44.097844114 161.0
44.124104680 151.0
44.150365245 165.0
44.176625811 161.0
44.202886376 180.0
44.229146941 189.0
44.255407507 178.0
44.281668072 164.0
44.307928637 175.0
44.334189203 166.0
44.360449768 155.0
44.386710333 169.0
44.412970899 159.0
44.439231464 168.0
44.465492029 159.0
44.491752595 184.0
44.518013160 174.0
44.544273726 165.0
44.570534291 193.0
44.596794856 165.0
44.623055422 188.0
44.649315987 178.0
44.675576552 188.0
44.701837118 191.0
44.728097683 163.0
44.754358248 181.0
44.780618814 174.0
44.806879379 194.0
44.833139945 164.0
44.859400510 195.0
44.885661075 165.0
44.911921641 199.0
44.938182206 187.0
44.964442771 173.0
44.990703337 190.0
45.016963902 188.0
45.043224467 172.0
45.069485033 185.0
45.095745598 160.0
45.122006163 171.0
45.148266729 175.0
45.174527294 168.0
45.200787860 160.0
45.227048425 178.0
45.253308990 159.0
45.279569556 165.0
45.305830121 171.0
45.332090686 154.0
45.358351252 171.0
45.384611817 134.0
45.410872382 154.0
45.437132948 174.0
45.463393513 179.0
45.489654078 146.0
45.515914644 161.0
45.542175209 143.0
45.568435775 157.0
45.594696340 120.0
45.620956905 139.0
45.647217471 160.0
45.673478036 159.0
45.699738601 164.0
45.725999167 150.0
45.752259732 125.0
45.778520297 120.0
45.804780863 115.0
45.831041428 118.0
45.857301993 129.0
45.883562559 118.0
45.909823124 128.0
45.936083690 129.0
45.962344255 124.0
45.988604820 108.0
46.014865386 111.0
46.041125951 111.0
46.067386516 115.0
46.093647082 132.0
46.119907647 108.0
46.146168212 108.0
46.172428778 134.0
46.198689343 122.0
46.224949908 128.0
46.251210474 112.0
46.277471039 126.0
46.303731605 139.0
46.329992170 126.0
46.356252735 122.0
46.382513301 123.0
46.408773866 131.0
46.435034431 124.0
46.461294997 135.0
46.487555562 115.0
46.513816127 122.0
46.540076693 140.0
46.566337258 150.0
46.592597823 123.0
46.618858389 127.0
46.645118954 110.0
46.671379520 135.0
46.697640085 128.0
46.723900650 126.0
46.750161216 131.0
46.776421781 111.0
46.802682346 125.0
46.828942912 127.0
46.855203477 137.0
46.881464042 121.0
46.907724608 109.0
46.933985173 130.0
46.960245738 125.0
46.986506304 126.0
47.012766869 135.0
47.039027435 143.0
47.065288000 121.0
47.091548565 139.0
47.117809131 111.0
47.144069696 130.0
47.170330261 117.0
47.196590827 107.0
47.222851392 121.0
47.249111957 163.0
47.275372523 106.0
47.301633088 110.0
47.327893653 116.0
47.354154219 114.0
47.380414784 143.0
47.406675350 131.0
47.432935915 125.0
47.459196480 134.0
47.485457046 104.0
47.511717611 123.0
47.537978176 125.0
47.564238742 102.0
47.590499307 130.0
47.616759872 122.0
47.643020438 111.0
47.669281003 122.0
47.695541569 119.0
47.721802134 118.0
47.748062699 96.0
47.774323265 111.0
47.800583830 121.0
47.826844395 123.0
47.853104961 114.0
47.879365526 116.0
47.905626091 126.0
47.931886657 110.0
47.958147222 123.0
47.984407787 112.0
48.010668353 110.0
48.036928918 110.0
48.063189484 113.0
48.089450049 140.0
48.115710614 99.0
48.141971180 130.0
48.168231745 135.0
48.194492310 103.0
48.220752876 110.0
48.247013441 109.0
48.273274006 139.0
48.299534572 147.0
48.325795137 124.0
48.352055702 126.0
48.378316268 111.0
48.404576833 119.0
48.430837399 117.0
48.457097964 125.0
48.483358529 95.0
48.509619095 136.0
48.535879660 107.0
48.562140225 135.0
48.588400791 118.0
48.614661356 117.0
48.640921921 139.0
48.667182487 123.0
48.693443052 123.0
48.719703617 109.0
48.745964183 114.0
48.772224748 115.0
48.798485314 129.0
48.824745879 128.0
48.851006444 125.0
48.877267010 140.0
48.903527575 147.0
48.929788140 134.0
48.956048706 133.0
48.982309271 132.0
49.008569836 129.0
49.034830402 117.0
49.061090967 155.0
49.087351532 139.0
49.113612098 120.0
49.139872663 118.0
49.166133229 142.0
49.192393794 140.0
49.218654359 137.0
49.244914925 131.0
49.271175490 120.0
49.297436055 135.0
49.323696621 142.0
49.349957186 140.0
49.376217751 142.0
49.402478317 131.0
49.428738882 125.0
49.454999447 141.0
49.481260013 153.0
49.507520578 140.0
49.533781144 150.0
49.560041709 147.0
49.586302274 116.0
49.612562840 143.0
49.638823405 154.0
49.665083970 153.0
49.691344536 128.0
49.717605101 129.0
49.743865666 152.0
49.770126232 157.0
49.796386797 144.0
49.822647362 130.0
49.848907928 173.0
49.875168493 135.0
49.901429059 131.0
49.927689624 129.0
49.953950189 139.0
49.980210755 129.0
50.006471320 152.0
