10.011630280 370.0
10.037890845 346.0
10.064151411 353.0
10.090411976 353.0
10.116672541 378.0
10.142933107 378.0
10.169193672 376.0
10.195454238 399.0
10.221714803 408.0
10.247975368 389.0
10.274235934 399.0
10.300496499 373.0
10.326757064 375.0
10.353017630 364.0
10.379278195 342.0
10.405538760 377.0
10.431799326 367.0
10.458059891 379.0
10.484320456 347.0
10.510581022 346.0
10.536841587 372.0
10.563102153 384.0
10.589362718 346.0
10.615623283 387.0
10.641883849 356.0
10.668144414 348.0
10.694404979 355.0
10.720665545 374.0
10.746926110 317.0
10.773186675 355.0
10.799447241 360.0
10.825707806 359.0
10.851968371 331.0
10.878228937 353.0
10.904489502 356.0
10.930750068 325.0
10.957010633 365.0
10.983271198 355.0
11.009531764 369.0
11.035792329 349.0
11.062052894 369.0
11.088313460 385.0
11.114574025 368.0
11.140834590 353.0
11.167095156 363.0
11.193355721 311.0
11.219616286 344.0
11.245876852 365.0
11.272137417 340.0
11.298397983 342.0
11.324658548 348.0
11.350919113 364.0
11.377179679 305.0
11.403440244 350.0
11.429700809 355.0
11.455961375 354.0
11.482221940 340.0
11.508482505 337.0
11.534743071 342.0
11.561003636 345.0
11.587264201 305.0
11.613524767 352.0
11.639785332 311.0
11.666045898 322.0
11.692306463 348.0
11.718567028 321.0
11.744827594 337.0
11.771088159 322.0
11.797348724 356.0
11.823609290 331.0
11.849869855 336.0
11.876130420 344.0
11.902390986 328.0
11.928651551 304.0
11.954912116 343.0
11.981172682 328.0
12.007433247 375.0
12.033693813 366.0
12.059954378 346.0
12.086214943 316.0
12.112475509 329.0
12.138736074 338.0
12.164996639 343.0
12.191257205 321.0
12.217517770 360.0
12.243778335 348.0
12.270038901 352.0
12.296299466 301.0
12.322560031 344.0
12.348820597 356.0
12.375081162 322.0
12.401341728 346.0
12.427602293 314.0
12.453862858 355.0
12.480123424 357.0
12.506383989 324.0
12.532644554 343.0
12.558905120 331.0
12.585165685 332.0
12.611426250 335.0
12.637686816 339.0
12.663947381 316.0
12.690207947 285.0
12.716468512 331.0
12.742729077 309.0
12.768989643 314.0
12.795250208 336.0
12.821510773 333.0
12.847771339 308.0
12.874031904 323.0
12.900292469 311.0
12.926553035 312.0
12.952813600 317.0
12.979074165 316.0
13.005334731 317.0
13.031595296 324.0
13.057855862 325.0
13.084116427 313.0
13.110376992 293.0
13.136637558 322.0
13.162898123 303.0
13.189158688 291.0
13.215419254 326.0
13.241679819 307.0
13.267940384 312.0
13.294200950 328.0
13.320461515 321.0
13.346722080 313.0
13.372982646 340.0
13.399243211 275.0
13.425503777 324.0
13.451764342 324.0
13.478024907 301.0
13.504285473 290.0
13.530546038 278.0
13.556806603 304.0
13.583067169 308.0
13.609327734 302.0
13.635588299 302.0
13.661848865 287.0
13.688109430 297.0
13.714369995 298.0
13.740630561 322.0
13.766891126 305.0
13.793151692 276.0
13.819412257 303.0
13.845672822 286.0
13.871933388 269.0
13.898193953 292.0
13.924454518 291.0
13.950715084 259.0
13.976975649 307.0
14.003236214 294.0
14.029496780 287.0
14.055757345 287.0
14.082017910 304.0
14.108278476 282.0
14.134539041 295.0
14.160799607 283.0
14.187060172 300.0
14.213320737 289.0
14.239581303 297.0
14.265841868 265.0
14.292102433 252.0
14.318362999 297.0
14.344623564 293.0
14.370884129 265.0
14.397144695 263.0
14.423405260 282.0
14.449665825 322.0
14.475926391 296.0
14.502186956 263.0
14.528447522 298.0
14.554708087 300.0
14.580968652 307.0
14.607229218 271.0
14.633489783 310.0
14.659750348 305.0
14.686010914 326.0
14.712271479 307.0
14.738532044 332.0
14.764792610 306.0
14.791053175 323.0
14.817313740 363.0
14.843574306 310.0
14.869834871 382.0
14.896095437 404.0
14.922356002 393.0
14.948616567 407.0
14.974877133 431.0
15.001137698 458.0
15.027398263 504.0
15.053658829 510.0
15.079919394 560.0
15.106179959 523.0
15.132440525 555.0
15.158701090 589.0
15.184961655 590.0
15.211222221 589.0
15.237482786 612.0
15.263743352 584.0
15.290003917 614.0
15.316264482 610.0
15.342525048 592.0
15.368785613 621.0
15.395046178 603.0
15.421306744 601.0
15.447567309 634.0
15.473827874 608.0
15.500088440 586.0
15.526349005 638.0
15.552609571 605.0
15.578870136 644.0
15.605130701 607.0
15.631391267 645.0
15.657651832 601.0
15.683912397 608.0
15.710172963 637.0
15.736433528 595.0
15.762694093 550.0
15.788954659 544.0
15.815215224 550.0
15.841475789 553.0
15.867736355 557.0
15.893996920 460.0
15.920257486 466.0
15.946518051 418.0
15.972778616 388.0
15.999039182 384.0
16.025299747 335.0
16.051560312 325.0
16.077820878 322.0
16.104081443 309.0
16.130342008 288.0
16.156602574 306.0
16.182863139 277.0
16.209123704 270.0
16.235384270 275.0
16.261644835 261.0
16.287905401 238.0
16.314165966 268.0
16.340426531 257.0
16.366687097 256.0
16.392947662 263.0
16.419208227 254.0
16.445468793 250.0
16.471729358 261.0
16.497989923 287.0
16.524250489 265.0
16.550511054 296.0
16.576771619 289.0
16.603032185 245.0
16.629292750 261.0
16.655553316 261.0
16.681813881 272.0
16.708074446 261.0
16.734335012 238.0
16.760595577 269.0
16.786856142 287.0
16.813116708 265.0
16.839377273 237.0
16.865637838 276.0
16.891898404 282.0
16.918158969 261.0
16.944419534 252.0
16.970680100 252.0
16.996940665 269.0
17.023201231 294.0
17.049461796 241.0
17.075722361 270.0
17.101982927 258.0
17.128243492 280.0
17.154504057 267.0
17.180764623 299.0
17.207025188 266.0
17.233285753 269.0
17.259546319 288.0
17.285806884 252.0
17.312067449 250.0
17.338328015 273.0
17.364588580 265.0
17.390849146 258.0
17.417109711 247.0
17.443370276 266.0
17.469630842 266.0
17.495891407 270.0
17.522151972 280.0
17.548412538 271.0
17.574673103 289.0
17.600933668 265.0
17.627194234 260.0
17.653454799 301.0
17.679715364 237.0
17.705975930 250.0
17.732236495 260.0
17.758497061 263.0
17.784757626 277.0
17.811018191 281.0
17.837278757 283.0
17.863539322 254.0
17.889799887 245.0
17.916060453 289.0
17.942321018 251.0
17.968581583 263.0
17.994842149 285.0
18.021102714 282.0
18.047363280 309.0
18.073623845 251.0
18.099884410 245.0
18.126144976 266.0
18.152405541 273.0
18.178666106 270.0
18.204926672 299.0
18.231187237 296.0
18.257447802 269.0
18.283708368 276.0
18.309968933 285.0
18.336229498 229.0
18.362490064 291.0
18.388750629 294.0
18.415011195 247.0
18.441271760 289.0
18.467532325 275.0
18.493792891 283.0
18.520053456 273.0
18.546314021 265.0
18.572574587 279.0
18.598835152 255.0
18.625095717 264.0
18.651356283 290.0
18.677616848 299.0
18.703877413 271.0
18.730137979 294.0
18.756398544 269.0
18.782659110 299.0
18.808919675 319.0
18.835180240 288.0
18.861440806 274.0
18.887701371 288.0
18.913961936 302.0
18.940222502 283.0
18.966483067 275.0
18.992743632 265.0
19.019004198 296.0
19.045264763 297.0
19.071525328 281.0
19.097785894 282.0
19.124046459 290.0
19.150307025 296.0
19.176567590 297.0
19.202828155 270.0
19.229088721 280.0
19.255349286 279.0
19.281609851 296.0
19.307870417 305.0
19.334130982 283.0
19.360391547 256.0
19.386652113 295.0
19.412912678 298.0
19.439173243 268.0
19.465433809 294.0
19.491694374 236.0
19.517954940 336.0
19.544215505 295.0
19.570476070 284.0
19.596736636 283.0
19.622997201 343.0
19.649257766 318.0
19.675518332 276.0
19.701778897 304.0
19.728039462 313.0
19.754300028 324.0
19.780560593 302.0
19.806821158 296.0
19.833081724 295.0
19.859342289 296.0
19.885602855 286.0
19.911863420 344.0
19.938123985 287.0
19.964384551 274.0
19.990645116 288.0
20.016905681 290.0
20.043166247 309.0
20.069426812 327.0
20.095687377 298.0
20.121947943 326.0
20.148208508 288.0
20.174469073 294.0
20.200729639 309.0
20.226990204 315.0
20.253250770 317.0
20.279511335 312.0
20.305771900 319.0
20.332032466 326.0
20.358293031 333.0
20.384553596 310.0
20.410814162 279.0
20.437074727 338.0
20.463335292 357.0
20.489595858 336.0
20.515856423 298.0
20.542116988 358.0
20.568377554 319.0
20.594638119 315.0
20.620898685 322.0
20.647159250 280.0
20.673419815 345.0
20.699680381 316.0
20.725940946 350.0
20.752201511 332.0
20.778462077 323.0
20.804722642 290.0
20.830983207 331.0
20.857243773 336.0
20.883504338 327.0
20.909764904 324.0
20.936025469 363.0
20.962286034 369.0
20.988546600 414.0
21.014807165 409.0
21.041067730 419.0
21.067328296 426.0
21.093588861 527.0
21.119849426 507.0
21.146109992 543.0
21.172370557 579.0
21.198631122 616.0
21.224891688 664.0
21.251152253 671.0
21.277412819 652.0
21.303673384 731.0
21.329933949 745.0
21.356194515 852.0
21.382455080 802.0
21.408715645 822.0
21.434976211 869.0
21.461236776 867.0
21.487497341 893.0
21.513757907 884.0
21.540018472 971.0
21.566279037 972.0
21.592539603 950.0
21.618800168 892.0
21.645060734 926.0
21.671321299 988.0
21.697581864 986.0
21.723842430 936.0
21.750102995 966.0
21.776363560 999.0
21.802624126 1021.0
21.828884691 937.0
21.855145256 998.0
21.881405822 976.0
21.907666387 1043.0
21.933926952 1060.0
21.960187518 989.0
21.986448083 975.0
22.012708649 1053.0
22.038969214 1056.0
22.065229779 1069.0
22.091490345 1125.0
22.117750910 1099.0
22.144011475 1060.0
22.170272041 1082.0
22.196532606 1041.0
22.222793171 1072.0
22.249053737 1052.0
22.275314302 1053.0
22.301574867 1030.0
22.327835433 984.0
22.354095998 1024.0
22.380356564 991.0
22.406617129 968.0
22.432877694 915.0
22.459138260 919.0
22.485398825 903.0
22.511659390 941.0
22.537919956 848.0
22.564180521 829.0
22.590441086 722.0
22.616701652 677.0
22.642962217 586.0
22.669222782 578.0
22.695483348 536.0
22.721743913 452.0
22.748004479 397.0
22.774265044 353.0
22.800525609 349.0
22.826786175 370.0
22.853046740 357.0
22.879307305 332.0
22.905567871 362.0
22.931828436 307.0
22.958089001 288.0
22.984349567 312.0
23.010610132 319.0
23.036870697 285.0
23.063131263 294.0
23.089391828 284.0
23.115652394 297.0
23.141912959 293.0
23.168173524 312.0
23.194434090 284.0
23.220694655 296.0
23.246955220 268.0
23.273215786 293.0
23.299476351 276.0
23.325736916 284.0
23.351997482 270.0
23.378258047 262.0
23.404518613 275.0
23.430779178 265.0
23.457039743 272.0
23.483300309 254.0
23.509560874 288.0
23.535821439 256.0
23.562082005 286.0
23.588342570 254.0
23.614603135 272.0
23.640863701 261.0
23.667124266 238.0
23.693384831 273.0
23.719645397 267.0
23.745905962 277.0
23.772166528 291.0
23.798427093 274.0
23.824687658 249.0
23.850948224 255.0
23.877208789 257.0
23.903469354 254.0
23.929729920 274.0
23.955990485 255.0
23.982251050 277.0
24.008511616 238.0
24.034772181 228.0
24.061032746 255.0
24.087293312 253.0
24.113553877 271.0
24.139814443 244.0
24.166075008 272.0
24.192335573 286.0
24.218596139 270.0
24.244856704 255.0
24.271117269 257.0
24.297377835 232.0
24.323638400 263.0
24.349898965 236.0
24.376159531 240.0
24.402420096 227.0
24.428680661 227.0
24.454941227 266.0
24.481201792 251.0
24.507462358 230.0
24.533722923 239.0
24.559983488 255.0
24.586244054 252.0
24.612504619 270.0
24.638765184 237.0
24.665025750 221.0
24.691286315 243.0
24.717546880 273.0
24.743807446 252.0
24.770068011 215.0
24.796328576 242.0
24.822589142 246.0
24.848849707 272.0
24.875110273 234.0
24.901370838 248.0
24.927631403 236.0
24.953891969 270.0
24.980152534 234.0
25.006413099 247.0
25.032673665 273.0
25.058934230 237.0
25.085194795 243.0
25.111455361 255.0
25.137715926 256.0
25.163976491 269.0
25.190237057 230.0
25.216497622 247.0
25.242758188 219.0
25.269018753 236.0
25.295279318 225.0
25.321539884 221.0
25.347800449 223.0
25.374061014 228.0
25.400321580 240.0
25.426582145 220.0
25.452842710 220.0
25.479103276 241.0
25.505363841 236.0
25.531624406 254.0
25.557884972 214.0
25.584145537 235.0
25.610406103 235.0
25.636666668 233.0
25.662927233 242.0
25.689187799 205.0
25.715448364 220.0
25.741708929 209.0
25.767969495 251.0
25.794230060 241.0
25.820490625 224.0
25.846751191 214.0
25.873011756 225.0
25.899272321 201.0
25.925532887 232.0
25.951793452 198.0
25.978054018 229.0
26.004314583 220.0
26.030575148 255.0
26.056835714 249.0
26.083096279 212.0
26.109356844 206.0
26.135617410 201.0
26.161877975 203.0
26.188138540 233.0
26.214399106 226.0
26.240659671 266.0
26.266920237 203.0
26.293180802 204.0
26.319441367 226.0
26.345701933 215.0
26.371962498 232.0
26.398223063 201.0
26.424483629 191.0
26.450744194 206.0
26.477004759 203.0
26.503265325 213.0
26.529525890 214.0
26.555786455 214.0
26.582047021 201.0
26.608307586 200.0
26.634568152 197.0
26.660828717 204.0
26.687089282 182.0
26.713349848 199.0
26.739610413 171.0
26.765870978 209.0
26.792131544 195.0
26.818392109 205.0
26.844652674 217.0
26.870913240 214.0
26.897173805 209.0
26.923434370 220.0
26.949694936 207.0
26.975955501 178.0
27.002216067 193.0
27.028476632 176.0
27.054737197 201.0
27.080997763 174.0
27.107258328 199.0
27.133518893 184.0
27.159779459 230.0
27.186040024 192.0
27.212300589 212.0
27.238561155 179.0
27.264821720 204.0
27.291082285 176.0
27.317342851 220.0
27.343603416 201.0
27.369863982 190.0
27.396124547 189.0
27.422385112 200.0
27.448645678 210.0
27.474906243 211.0
27.501166808 192.0
27.527427374 224.0
27.553687939 190.0
27.579948504 218.0
27.606209070 204.0
27.632469635 220.0
27.658730200 166.0
27.684990766 209.0
27.711251331 178.0
27.737511897 201.0
27.763772462 213.0
27.790033027 186.0
27.816293593 196.0
27.842554158 212.0
27.868814723 186.0
27.895075289 212.0
27.921335854 185.0
27.947596419 194.0
27.973856985 190.0
28.000117550 187.0
28.026378115 196.0
28.052638681 176.0
28.078899246 201.0
28.105159812 227.0
28.131420377 191.0
28.157680942 210.0
28.183941508 187.0
28.210202073 181.0
28.236462638 184.0
28.262723204 175.0
28.288983769 200.0
28.315244334 159.0
28.341504900 177.0
28.367765465 191.0
28.394026030 175.0
28.420286596 185.0
28.446547161 182.0
28.472807727 183.0
28.499068292 171.0
28.525328857 178.0
28.551589423 191.0
28.577849988 169.0
28.604110553 185.0
28.630371119 190.0
28.656631684 189.0
28.682892249 211.0
28.709152815 198.0
28.735413380 178.0
28.761673946 198.0
28.787934511 212.0
28.814195076 183.0
28.840455642 173.0
28.866716207 174.0
28.892976772 182.0
28.919237338 165.0
28.945497903 171.0
28.971758468 191.0
28.998019034 190.0
29.024279599 191.0
29.050540164 210.0
29.076800730 178.0
29.103061295 199.0
29.129321861 203.0
29.155582426 179.0
29.181842991 192.0
29.208103557 178.0
29.234364122 212.0
29.260624687 180.0
29.286885253 168.0
29.313145818 194.0
29.339406383 185.0
29.365666949 204.0
29.391927514 182.0
29.418188079 164.0
29.444448645 184.0
29.470709210 179.0
29.496969776 191.0
29.523230341 195.0
29.549490906 207.0
29.575751472 185.0
29.602012037 184.0
29.628272602 195.0
29.654533168 184.0
29.680793733 171.0
29.707054298 204.0
29.733314864 191.0
29.759575429 183.0
29.785835994 190.0
29.812096560 189.0
29.838357125 237.0
29.864617691 187.0
29.890878256 196.0
29.917138821 207.0
29.943399387 217.0
29.969659952 193.0
29.995920517 226.0
30.022181083 223.0
30.048441648 214.0
30.074702213 226.0
30.100962779 237.0
30.127223344 244.0
30.153483909 282.0
30.179744475 280.0
30.206005040 271.0
30.232265606 303.0
30.258526171 296.0
30.284786736 318.0
30.311047302 336.0
30.337307867 344.0
30.363568432 357.0
30.389828998 342.0
30.416089563 379.0
30.442350128 386.0
30.468610694 408.0
30.494871259 405.0
30.521131824 392.0
30.547392390 436.0
30.573652955 444.0
30.599913521 421.0
30.626174086 417.0
30.652434651 441.0
30.678695217 470.0
30.704955782 415.0
30.731216347 463.0
30.757476913 463.0
30.783737478 450.0
30.809998043 452.0
30.836258609 469.0
30.862519174 479.0
30.888779739 491.0
30.915040305 526.0
30.941300870 490.0
30.967561436 495.0
30.993822001 502.0
31.020082566 516.0
31.046343132 528.0
31.072603697 499.0
31.098864262 490.0
31.125124828 475.0
31.151385393 518.0
31.177645958 517.0
31.203906524 525.0
31.230167089 564.0
31.256427654 486.0
31.282688220 532.0
31.308948785 530.0
31.335209351 571.0
31.361469916 540.0
31.387730481 542.0
31.413991047 479.0
31.440251612 501.0
31.466512177 530.0
31.492772743 505.0
31.519033308 535.0
31.545293873 527.0
31.571554439 587.0
31.597815004 539.0
31.624075570 524.0
31.650336135 512.0
31.676596700 534.0
31.702857266 488.0
31.729117831 492.0
31.755378396 529.0
31.781638962 497.0
31.807899527 510.0
31.834160092 488.0
31.860420658 463.0
31.886681223 486.0
31.912941788 459.0
31.939202354 475.0
31.965462919 460.0
31.991723485 444.0
32.017984050 454.0
32.044244615 392.0
32.070505181 427.0
32.096765746 434.0
32.123026311 429.0
32.149286877 393.0
32.175547442 353.0
32.201808007 318.0
32.228068573 314.0
32.254329138 295.0
32.280589703 283.0
32.306850269 257.0
32.333110834 230.0
32.359371400 217.0
32.385631965 187.0
32.411892530 209.0
32.438153096 180.0
32.464413661 192.0
32.490674226 163.0
32.516934792 142.0
32.543195357 148.0
32.569455922 128.0
32.595716488 147.0
32.621977053 158.0
32.648237618 154.0
32.674498184 143.0
32.700758749 154.0
32.727019315 129.0
32.753279880 145.0
32.779540445 152.0
32.805801011 151.0
32.832061576 131.0
32.858322141 154.0
32.884582707 136.0
32.910843272 152.0
32.937103837 130.0
32.963364403 138.0
32.989624968 151.0
33.015885533 136.0
33.042146099 136.0
33.068406664 126.0
33.094667230 159.0
33.120927795 139.0
33.147188360 123.0
33.173448926 127.0
33.199709491 170.0
33.225970056 135.0
33.252230622 124.0
33.278491187 145.0
33.304751752 129.0
33.331012318 121.0
33.357272883 142.0
33.383533448 131.0
33.409794014 129.0
33.436054579 156.0
33.462315145 143.0
33.488575710 143.0
33.514836275 148.0
33.541096841 152.0
33.567357406 130.0
33.593617971 134.0
33.619878537 140.0
33.646139102 148.0
33.672399667 146.0
33.698660233 138.0
33.724920798 140.0
33.751181363 131.0
33.777441929 147.0
33.803702494 139.0
33.829963060 135.0
33.856223625 161.0
33.882484190 149.0
33.908744756 136.0
33.935005321 177.0
33.961265886 153.0
33.987526452 147.0
34.013787017 142.0
34.040047582 156.0
34.066308148 158.0
34.092568713 168.0
34.118829279 191.0
34.145089844 175.0
34.171350409 196.0
34.197610975 176.0
34.223871540 171.0
34.250132105 170.0
34.276392671 170.0
34.302653236 174.0
34.328913801 157.0
34.355174367 201.0
34.381434932 170.0
34.407695497 221.0
34.433956063 200.0
34.460216628 168.0
34.486477194 168.0
34.512737759 176.0
34.538998324 208.0
34.565258890 180.0
34.591519455 204.0
34.617780020 210.0
34.644040586 196.0
34.670301151 196.0
34.696561716 193.0
34.722822282 216.0
34.749082847 206.0
34.775343412 180.0
34.801603978 161.0
34.827864543 199.0
34.854125109 197.0
34.880385674 202.0
34.906646239 172.0
34.932906805 202.0
34.959167370 189.0
34.985427935 220.0
35.011688501 198.0
35.037949066 199.0
35.064209631 176.0
35.090470197 190.0
35.116730762 192.0
35.142991327 189.0
35.169251893 203.0
35.195512458 184.0
35.221773024 191.0
35.248033589 222.0
35.274294154 218.0
35.300554720 192.0
35.326815285 177.0
35.353075850 182.0
35.379336416 188.0
35.405596981 202.0
35.431857546 214.0
35.458118112 202.0
35.484378677 195.0
35.510639242 186.0
35.536899808 199.0
35.563160373 198.0
35.589420939 197.0
35.615681504 202.0
35.641942069 192.0
35.668202635 193.0
35.694463200 159.0
35.720723765 168.0
35.746984331 175.0
35.773244896 187.0
35.799505461 168.0
35.825766027 187.0
35.852026592 179.0
35.878287157 175.0
35.904547723 174.0
35.930808288 177.0
35.957068854 175.0
35.983329419 167.0
36.009589984 186.0
36.035850550 151.0
36.062111115 159.0
36.088371680 143.0
36.114632246 161.0
36.140892811 157.0
36.167153376 159.0
36.193413942 146.0
36.219674507 133.0
36.245935072 123.0
36.272195638 124.0
36.298456203 112.0
36.324716769 128.0
36.350977334 116.0
36.377237899 115.0
36.403498465 103.0
36.429759030 110.0
36.456019595 121.0
36.482280161 131.0
36.508540726 112.0
36.534801291 107.0
36.561061857 117.0
36.587322422 102.0
36.613582987 129.0
36.639843553 133.0
36.666104118 125.0
36.692364684 150.0
36.718625249 133.0
36.744885814 144.0
36.771146380 121.0
36.797406945 123.0
36.823667510 126.0
36.849928076 118.0
36.876188641 113.0
36.902449206 127.0
36.928709772 119.0
36.954970337 121.0
36.981230903 132.0
37.007491468 155.0
37.033752033 126.0
37.060012599 139.0
37.086273164 173.0
37.112533729 120.0
37.138794295 134.0
37.165054860 173.0
37.191315425 163.0
37.217575991 170.0
37.243836556 176.0
37.270097121 189.0
37.296357687 187.0
37.322618252 158.0
37.348878818 200.0
37.375139383 208.0
37.401399948 174.0
37.427660514 186.0
37.453921079 193.0
37.480181644 216.0
37.506442210 218.0
37.532702775 214.0
37.558963340 209.0
37.585223906 214.0
37.611484471 241.0
37.637745036 222.0
37.664005602 214.0
37.690266167 235.0
37.716526733 228.0
37.742787298 247.0
37.769047863 231.0
37.795308429 275.0
37.821568994 260.0
37.847829559 260.0
37.874090125 240.0
37.900350690 279.0
37.926611255 231.0
37.952871821 266.0
37.979132386 258.0
38.005392951 285.0
38.031653517 246.0
38.057914082 262.0
38.084174648 258.0
38.110435213 236.0
38.136695778 253.0
38.162956344 251.0
38.189216909 283.0
38.215477474 270.0
38.241738040 241.0
38.267998605 292.0
38.294259170 294.0
38.320519736 260.0
38.346780301 268.0
38.373040866 291.0
38.399301432 290.0
38.425561997 293.0
38.451822563 295.0
38.478083128 272.0
38.504343693 317.0
38.530604259 261.0
38.556864824 283.0
38.583125389 265.0
38.609385955 303.0
38.635646520 294.0
38.661907085 288.0
38.688167651 273.0
38.714428216 304.0
38.740688781 273.0
38.766949347 312.0
38.793209912 288.0
38.819470478 259.0
38.845731043 293.0
38.871991608 280.0
38.898252174 276.0
38.924512739 280.0
38.950773304 239.0
38.977033870 259.0
39.003294435 310.0
39.029555000 289.0
39.055815566 284.0
39.082076131 243.0
39.108336696 279.0
39.134597262 271.0
39.160857827 251.0
39.187118393 237.0
39.213378958 270.0
39.239639523 261.0
39.265900089 282.0
39.292160654 281.0
39.318421219 265.0
39.344681785 270.0
39.370942350 269.0
39.397202915 237.0
39.423463481 247.0
39.449724046 247.0
39.475984612 264.0
39.502245177 229.0
39.528505742 245.0
39.554766308 214.0
39.581026873 223.0
39.607287438 217.0
39.633548004 194.0
39.659808569 206.0
39.686069134 180.0
39.712329700 166.0
39.738590265 165.0
39.764850830 141.0
39.791111396 144.0
39.817371961 148.0
39.843632527 140.0
39.869893092 160.0
39.896153657 123.0
39.922414223 127.0
39.948674788 118.0
39.974935353 133.0
40.001195919 102.0
40.027456484 124.0
40.053717049 112.0
40.079977615 116.0
40.106238180 126.0
40.132498745 100.0
40.158759311 112.0
40.185019876 108.0
40.211280442 106.0
40.237541007 120.0
40.263801572 113.0
40.290062138 98.0
40.316322703 117.0
40.342583268 105.0
40.368843834 108.0
40.395104399 107.0
40.421364964 111.0
40.447625530 117.0
40.473886095 108.0
40.500146660 102.0
40.526407226 110.0
40.552667791 117.0
40.578928357 106.0
40.605188922 109.0
40.631449487 102.0
40.657710053 104.0
40.683970618 113.0
40.710231183 118.0
40.736491749 123.0
40.762752314 101.0
40.789012879 96.0
40.815273445 115.0
40.841534010 105.0
40.867794575 107.0
40.894055141 94.0
40.920315706 88.0
40.946576272 113.0
40.972836837 104.0
40.999097402 117.0
41.025357968 106.0
41.051618533 112.0
41.077879098 98.0
41.104139664 110.0
41.130400229 88.0
41.156660794 105.0
41.182921360 107.0
41.209181925 96.0
41.235442490 126.0
41.261703056 99.0
41.287963621 115.0
41.314224187 99.0
41.340484752 88.0
41.366745317 89.0
41.393005883 92.0
41.419266448 106.0
41.445527013 89.0
41.471787579 100.0
41.498048144 102.0
41.524308709 107.0
41.550569275 75.0
41.576829840 117.0
41.603090405 116.0
41.629350971 97.0
41.655611536 99.0
41.681872102 90.0
41.708132667 98.0
41.734393232 103.0
41.760653798 100.0
41.786914363 91.0
41.813174928 91.0
41.839435494 114.0
41.865696059 90.0
41.891956624 124.0
41.918217190 93.0
41.944477755 97.0
41.970738320 108.0
41.996998886 94.0
42.023259451 105.0
42.049520017 87.0
42.075780582 93.0
42.102041147 100.0
42.128301713 111.0
42.154562278 106.0
42.180822843 114.0
42.207083409 89.0
42.233343974 102.0
42.259604539 112.0
42.285865105 93.0
42.312125670 92.0
42.338386236 88.0
42.364646801 94.0
42.390907366 94.0
42.417167932 88.0
42.443428497 102.0
42.469689062 97.0
42.495949628 105.0
42.522210193 90.0
42.548470758 101.0
42.574731324 96.0
42.600991889 101.0
42.627252454 102.0
42.653513020 85.0
42.679773585 101.0
42.706034151 84.0
42.732294716 103.0
42.758555281 97.0
42.784815847 93.0
42.811076412 99.0
42.837336977 120.0
42.863597543 93.0
42.889858108 96.0
42.916118673 94.0
42.942379239 124.0
42.968639804 112.0
42.994900369 104.0
43.021160935 105.0
43.047421500 117.0
43.073682066 118.0
43.099942631 124.0
43.126203196 87.0
43.152463762 103.0
43.178724327 111.0
43.204984892 126.0
43.231245458 106.0
43.257506023 122.0
43.283766588 113.0
43.310027154 113.0
43.336287719 120.0
43.362548284 129.0
43.388808850 119.0
43.415069415 149.0
43.441329981 125.0
43.467590546 146.0
43.493851111 130.0
43.520111677 125.0
43.546372242 133.0
43.572632807 142.0
43.598893373 161.0
43.625153938 145.0
43.651414503 125.0
43.677675069 143.0
43.703935634 139.0
43.730196199 134.0
43.756456765 163.0
43.782717330 144.0
43.808977896 166.0
43.835238461 173.0
43.861499026 157.0
43.887759592 167.0
43.914020157 169.0
43.940280722 156.0
43.966541288 175.0
43.992801853 157.0
44.019062418 174.0
44.045322984 166.0
44.071583549 153.0
44.097844114 155.0
44.124104680 173.0
44.150365245 169.0
44.176625811 164.0
44.202886376 169.0
44.229146941 169.0
44.255407507 196.0
44.281668072 161.0
44.307928637 176.0
44.334189203 170.0
44.360449768 168.0
44.386710333 160.0
44.412970899 185.0
44.439231464 175.0
44.465492029 198.0
44.491752595 178.0
44.518013160 183.0
44.544273726 195.0
44.570534291 194.0
44.596794856 169.0
44.623055422 185.0
44.649315987 194.0
44.675576552 217.0
44.701837118 168.0
44.728097683 200.0
44.754358248 203.0
44.780618814 197.0
44.806879379 162.0
44.833139945 209.0
44.859400510 176.0
44.885661075 184.0
44.911921641 187.0
44.938182206 202.0
44.964442771 208.0
44.990703337 178.0
45.016963902 202.0
45.043224467 208.0
45.069485033 203.0
45.095745598 192.0
45.122006163 183.0
45.148266729 199.0
45.174527294 213.0
45.200787860 203.0
45.227048425 185.0
45.253308990 176.0
45.279569556 176.0
45.305830121 173.0
45.332090686 182.0
45.358351252 191.0
45.384611817 211.0
45.410872382 184.0
45.437132948 178.0
45.463393513 196.0
45.489654078 190.0
45.515914644 191.0
45.542175209 183.0
45.568435775 202.0
45.594696340 178.0
45.620956905 171.0
45.647217471 179.0
45.673478036 210.0
45.699738601 201.0
45.725999167 173.0
45.752259732 153.0
45.778520297 160.0
45.804780863 180.0
45.831041428 167.0
45.857301993 189.0
45.883562559 148.0
45.909823124 160.0
45.936083690 147.0
45.962344255 148.0
45.988604820 185.0
46.014865386 186.0
46.041125951 150.0
46.067386516 134.0
46.093647082 150.0
46.119907647 148.0
46.146168212 147.0
46.172428778 124.0
46.198689343 168.0
46.224949908 127.0
46.251210474 142.0
46.277471039 115.0
46.303731605 128.0
46.329992170 123.0
46.356252735 119.0
46.382513301 131.0
46.408773866 124.0
46.435034431 136.0
46.461294997 122.0
46.487555562 119.0
46.513816127 121.0
46.540076693 105.0
46.566337258 129.0
46.592597823 128.0
46.618858389 106.0
46.645118954 98.0
46.671379520 129.0
46.697640085 108.0
46.723900650 113.0
46.750161216 113.0
46.776421781 111.0
46.802682346 118.0
46.828942912 111.0
46.855203477 131.0
46.881464042 120.0
46.907724608 88.0
46.933985173 120.0
46.960245738 119.0
46.986506304 126.0
47.012766869 120.0
47.039027435 121.0
47.065288000 119.0
47.091548565 112.0
47.117809131 117.0
47.144069696 120.0
47.170330261 119.0
47.196590827 115.0
47.222851392 128.0
47.249111957 116.0
47.275372523 123.0
47.301633088 116.0
47.327893653 127.0
47.354154219 122.0
47.380414784 108.0
47.406675350 123.0
47.432935915 126.0
47.459196480 131.0
47.485457046 126.0
47.511717611 109.0
47.537978176 131.0
47.564238742 128.0
47.590499307 117.0
47.616759872 125.0
47.643020438 125.0
47.669281003 95.0
47.695541569 98.0
47.721802134 137.0
47.748062699 109.0
47.774323265 116.0
47.800583830 103.0
47.826844395 111.0
47.853104961 124.0
47.879365526 119.0
47.905626091 112.0
47.931886657 129.0
47.958147222 133.0
47.984407787 122.0
48.010668353 106.0
48.036928918 87.0
48.063189484 112.0
48.089450049 113.0
48.115710614 93.0
48.141971180 114.0
48.168231745 122.0
48.194492310 119.0
48.220752876 135.0
48.247013441 122.0
48.273274006 122.0
48.299534572 97.0
48.325795137 111.0
48.352055702 112.0
48.378316268 118.0
48.404576833 129.0
48.430837399 115.0
48.457097964 95.0
48.483358529 146.0
48.509619095 127.0
48.535879660 130.0
48.562140225 100.0
48.588400791 116.0
48.614661356 123.0
48.640921921 103.0
48.667182487 118.0
48.693443052 123.0
48.719703617 105.0
48.745964183 116.0
48.772224748 120.0
48.798485314 111.0
48.824745879 123.0
48.851006444 134.0
48.877267010 100.0
48.903527575 117.0
48.929788140 100.0
48.956048706 124.0
48.982309271 124.0
49.008569836 116.0
49.034830402 126.0
49.061090967 128.0
49.087351532 120.0
49.113612098 112.0
49.139872663 140.0
49.166133229 104.0
49.192393794 128.0
49.218654359 127.0
49.244914925 109.0
49.271175490 110.0
49.297436055 110.0
49.323696621 125.0
49.349957186 112.0
49.376217751 126.0
49.402478317 127.0
49.428738882 147.0
49.454999447 134.0
49.481260013 116.0
49.507520578 139.0
49.533781144 109.0
49.560041709 131.0
49.586302274 123.0
49.612562840 129.0
49.638823405 125.0
49.665083970 148.0
49.691344536 134.0
49.717605101 134.0
49.743865666 132.0
49.770126232 119.0
49.796386797 143.0
49.822647362 145.0
49.848907928 137.0
49.875168493 139.0
49.901429059 150.0
49.927689624 133.0
49.953950189 144.0
49.980210755 132.0
50.006471320 159.0
