10.011630280 367.0
10.037890845 353.0
10.064151411 356.0
10.090411976 373.0
10.116672541 356.0
10.142933107 370.0
10.169193672 416.0
10.195454238 354.0
10.221714803 368.0
10.247975368 380.0
10.274235934 359.0
10.300496499 369.0
10.326757064 370.0
10.353017630 358.0
10.379278195 361.0
10.405538760 402.0
10.431799326 363.0
10.458059891 401.0
10.484320456 361.0
10.510581022 394.0
10.536841587 370.0
10.563102153 390.0
10.589362718 328.0
10.615623283 341.0
10.641883849 375.0
10.668144414 337.0
10.694404979 333.0
10.720665545 347.0
10.746926110 363.0
10.773186675 350.0
10.799447241 361.0
10.825707806 375.0
10.851968371 421.0
10.878228937 392.0
10.904489502 345.0
10.930750068 340.0
10.957010633 360.0
10.983271198 351.0
11.009531764 344.0
11.035792329 352.0
11.062052894 335.0
11.088313460 347.0
11.114574025 354.0
11.140834590 349.0
11.167095156 367.0
11.193355721 353.0
11.219616286 343.0
11.245876852 348.0
11.272137417 333.0
11.298397983 378.0
11.324658548 344.0
11.350919113 330.0
11.377179679 338.0
11.403440244 349.0
11.429700809 360.0
11.455961375 351.0
11.482221940 313.0
11.508482505 313.0
11.534743071 320.0
11.561003636 333.0
11.587264201 347.0
11.613524767 353.0
11.639785332 346.0
11.666045898 371.0
11.692306463 309.0
11.718567028 321.0
11.744827594 356.0
11.771088159 337.0
11.797348724 342.0
11.823609290 337.0
11.849869855 328.0
11.876130420 324.0
11.902390986 355.0
11.928651551 313.0
11.954912116 325.0
11.981172682 330.0
12.007433247 308.0
12.033693813 344.0
12.059954378 315.0
12.086214943 338.0
12.112475509 294.0
12.138736074 364.0
12.164996639 376.0
12.191257205 342.0
12.217517770 328.0
12.243778335 331.0
12.270038901 326.0
12.296299466 364.0
12.322560031 337.0
12.348820597 355.0
12.375081162 338.0
12.401341728 360.0
12.427602293 325.0
12.453862858 342.0
12.480123424 329.0
12.506383989 337.0
12.532644554 340.0
12.558905120 356.0
12.585165685 339.0
12.611426250 301.0
12.637686816 365.0
12.663947381 342.0
12.690207947 344.0
12.716468512 355.0
12.742729077 312.0
12.768989643 322.0
12.795250208 314.0
12.821510773 316.0
12.847771339 339.0
12.874031904 352.0
12.900292469 322.0
12.926553035 334.0
12.952813600 342.0
12.979074165 310.0
13.005334731 318.0
13.031595296 321.0
13.057855862 351.0
13.084116427 322.0
13.110376992 334.0
13.136637558 293.0
13.162898123 317.0
13.189158688 282.0
13.215419254 303.0
13.241679819 331.0
13.267940384 293.0
13.294200950 303.0
13.320461515 301.0
13.346722080 292.0
13.372982646 311.0
13.399243211 308.0
13.425503777 282.0
13.451764342 318.0
13.478024907 344.0
13.504285473 319.0
13.530546038 279.0
13.556806603 340.0
13.583067169 300.0
13.609327734 280.0
13.635588299 308.0
13.661848865 284.0
13.688109430 301.0
13.714369995 282.0
13.740630561 296.0
13.766891126 274.0
13.793151692 286.0
13.819412257 295.0
13.845672822 291.0
13.871933388 299.0
13.898193953 263.0
13.924454518 270.0
13.950715084 282.0
13.976975649 301.0
14.003236214 269.0
14.029496780 310.0
14.055757345 291.0
14.082017910 304.0
14.108278476 266.0
14.134539041 261.0
14.160799607 283.0
14.187060172 312.0
14.213320737 308.0
14.239581303 306.0
14.265841868 296.0
14.292102433 316.0
14.318362999 274.0
14.344623564 290.0
14.370884129 276.0
14.397144695 351.0
14.423405260 299.0
14.449665825 294.0
14.475926391 320.0
14.502186956 308.0
14.528447522 322.0
14.554708087 344.0
14.580968652 421.0
14.607229218 416.0
14.633489783 423.0
14.659750348 406.0
14.686010914 427.0
14.712271479 432.0
14.738532044 460.0
14.764792610 526.0
14.791053175 477.0
14.817313740 496.0
14.843574306 529.0
14.869834871 559.0
14.896095437 584.0
14.922356002 566.0
14.948616567 586.0
14.974877133 634.0
15.001137698 668.0
15.027398263 622.0
15.053658829 644.0
15.079919394 609.0
15.106179959 578.0
15.132440525 637.0
15.158701090 575.0
15.184961655 625.0
15.211222221 619.0
15.237482786 575.0
15.263743352 588.0
15.290003917 607.0
15.316264482 573.0
15.342525048 576.0
15.368785613 628.0
15.395046178 572.0
15.421306744 575.0
15.447567309 590.0
15.473827874 563.0
15.500088440 533.0
15.526349005 530.0
15.552609571 478.0
15.578870136 453.0
15.605130701 431.0
15.631391267 422.0
15.657651832 374.0
15.683912397 367.0
15.710172963 330.0
15.736433528 307.0
15.762694093 329.0
15.788954659 296.0
15.815215224 310.0
15.841475789 278.0
15.867736355 299.0
15.893996920 265.0
15.920257486 319.0
15.946518051 310.0
15.972778616 283.0
15.999039182 283.0
16.025299747 265.0
16.051560312 287.0
16.077820878 265.0
16.104081443 255.0
16.130342008 274.0
16.156602574 239.0
16.182863139 261.0
16.209123704 270.0
16.235384270 260.0
16.261644835 274.0
16.287905401 295.0
16.314165966 263.0
16.340426531 274.0
16.366687097 253.0
16.392947662 261.0
16.419208227 285.0
16.445468793 254.0
16.471729358 275.0
16.497989923 262.0
16.524250489 279.0
16.550511054 287.0
16.576771619 272.0
16.603032185 269.0
16.629292750 285.0
16.655553316 292.0
16.681813881 263.0
16.708074446 226.0
16.734335012 259.0
16.760595577 273.0
16.786856142 252.0
16.813116708 282.0
16.839377273 272.0
16.865637838 261.0
16.891898404 267.0
16.918158969 247.0
16.944419534 276.0
16.970680100 269.0
16.996940665 272.0
17.023201231 287.0
17.049461796 238.0
17.075722361 269.0
17.101982927 231.0
17.128243492 272.0
17.154504057 245.0
17.180764623 274.0
17.207025188 253.0
17.233285753 274.0
17.259546319 292.0
17.285806884 273.0
17.312067449 247.0
17.338328015 235.0
17.364588580 281.0
17.390849146 276.0
17.417109711 300.0
17.443370276 296.0
17.469630842 274.0
17.495891407 248.0
17.522151972 281.0
17.548412538 290.0
17.574673103 264.0
17.600933668 285.0
17.627194234 304.0
17.653454799 282.0
17.679715364 281.0
17.705975930 259.0
17.732236495 260.0
17.758497061 266.0
17.784757626 250.0
17.811018191 285.0
17.837278757 277.0
17.863539322 269.0
17.889799887 271.0
17.916060453 269.0
17.942321018 254.0
17.968581583 274.0
17.994842149 298.0
18.021102714 274.0
18.047363280 264.0
18.073623845 274.0
18.099884410 283.0
18.126144976 260.0
18.152405541 248.0
18.178666106 264.0
18.204926672 249.0
18.231187237 263.0
18.257447802 295.0
18.283708368 257.0
18.309968933 284.0
18.336229498 240.0
18.362490064 282.0
18.388750629 259.0
18.415011195 292.0
18.441271760 277.0
18.467532325 236.0
18.493792891 259.0
18.520053456 249.0
18.546314021 288.0
18.572574587 282.0
18.598835152 272.0
18.625095717 269.0
18.651356283 279.0
18.677616848 308.0
18.703877413 248.0
18.730137979 286.0
18.756398544 281.0
18.782659110 266.0
18.808919675 268.0
18.835180240 267.0
18.861440806 278.0
18.887701371 305.0
18.913961936 279.0
18.940222502 238.0
18.966483067 281.0
18.992743632 279.0
19.019004198 246.0
19.045264763 266.0
19.071525328 307.0
19.097785894 298.0
19.124046459 284.0
19.150307025 291.0
19.176567590 270.0
19.202828155 298.0
19.229088721 280.0
19.255349286 275.0
19.281609851 282.0
19.307870417 309.0
19.334130982 258.0
19.360391547 301.0
19.386652113 280.0
19.412912678 289.0
19.439173243 261.0
19.465433809 312.0
19.491694374 310.0
19.517954940 296.0
19.544215505 300.0
19.570476070 306.0
19.596736636 315.0
19.622997201 281.0
19.649257766 280.0
19.675518332 314.0
19.701778897 315.0
19.728039462 293.0
19.754300028 315.0
19.780560593 306.0
19.806821158 288.0
19.833081724 302.0
19.859342289 277.0
19.885602855 272.0
19.911863420 294.0
19.938123985 302.0
19.964384551 305.0
19.990645116 313.0
20.016905681 301.0
20.043166247 289.0
20.069426812 285.0
20.095687377 323.0
20.121947943 291.0
20.148208508 321.0
20.174469073 334.0
20.200729639 337.0
20.226990204 280.0
20.253250770 292.0
20.279511335 292.0
20.305771900 320.0
20.332032466 292.0
20.358293031 335.0
20.384553596 338.0
20.410814162 308.0
20.437074727 306.0
20.463335292 299.0
20.489595858 358.0
20.515856423 362.0
20.542116988 371.0
20.568377554 332.0
20.594638119 343.0
20.620898685 363.0
20.647159250 365.0
20.673419815 400.0
20.699680381 386.0
20.725940946 410.0
20.752201511 452.0
20.778462077 397.0
20.804722642 472.0
20.830983207 514.0
20.857243773 488.0
20.883504338 539.0
20.909764904 551.0
20.936025469 578.0
20.962286034 548.0
20.988546600 566.0
21.014807165 548.0
21.041067730 649.0
21.067328296 642.0
21.093588861 609.0
21.119849426 698.0
21.146109992 655.0
21.172370557 662.0
21.198631122 750.0
21.224891688 745.0
21.251152253 686.0
21.277412819 715.0
21.303673384 755.0
21.329933949 805.0
21.356194515 731.0
21.382455080 748.0
21.408715645 724.0
21.434976211 781.0
21.461236776 781.0
21.487497341 781.0
21.513757907 766.0
21.540018472 771.0
21.566279037 753.0
21.592539603 743.0
21.618800168 818.0
21.645060734 809.0
21.671321299 799.0
21.697581864 806.0
21.723842430 738.0
21.750102995 760.0
21.776363560 765.0
21.802624126 754.0
21.828884691 753.0
21.855145256 764.0
21.881405822 756.0
21.907666387 742.0
21.933926952 748.0
21.960187518 737.0
21.986448083 678.0
22.012708649 709.0
22.038969214 656.0
22.065229779 671.0
22.091490345 587.0
22.117750910 615.0
22.144011475 612.0
22.170272041 587.0
22.196532606 552.0
22.222793171 466.0
22.249053737 484.0
22.275314302 465.0
22.301574867 384.0
22.327835433 387.0
22.354095998 377.0
22.380356564 350.0
22.406617129 315.0
22.432877694 308.0
22.459138260 355.0
22.485398825 306.0
22.511659390 277.0
22.537919956 273.0
22.564180521 307.0
22.590441086 306.0
22.616701652 292.0
22.642962217 314.0
22.669222782 302.0
22.695483348 251.0
22.721743913 301.0
22.748004479 265.0
22.774265044 245.0
22.800525609 316.0
22.826786175 297.0
22.853046740 289.0
22.879307305 260.0
22.905567871 241.0
22.931828436 297.0
22.958089001 248.0
22.984349567 277.0
23.010610132 279.0
23.036870697 249.0
23.063131263 274.0
23.089391828 275.0
23.115652394 259.0
23.141912959 264.0
23.168173524 277.0
23.194434090 277.0
23.220694655 264.0
23.246955220 292.0
23.273215786 250.0
23.299476351 295.0
23.325736916 269.0
23.351997482 255.0
23.378258047 280.0
23.404518613 257.0
23.430779178 275.0
23.457039743 289.0
23.483300309 287.0
23.509560874 274.0
23.535821439 302.0
23.562082005 280.0
23.588342570 315.0
23.614603135 270.0
23.640863701 284.0
23.667124266 272.0
23.693384831 307.0
23.719645397 272.0
23.745905962 284.0
23.772166528 261.0
23.798427093 308.0
23.824687658 285.0
23.850948224 285.0
23.877208789 331.0
23.903469354 289.0
23.929729920 319.0
23.955990485 286.0
23.982251050 292.0
24.008511616 286.0
24.034772181 296.0
24.061032746 292.0
24.087293312 295.0
24.113553877 285.0
24.139814443 299.0
24.166075008 277.0
24.192335573 281.0
24.218596139 286.0
24.244856704 289.0
24.271117269 291.0
24.297377835 284.0
24.323638400 246.0
24.349898965 272.0
24.376159531 297.0
24.402420096 283.0
24.428680661 285.0
24.454941227 271.0
24.481201792 266.0
24.507462358 292.0
24.533722923 268.0
24.559983488 294.0
24.586244054 282.0
24.612504619 302.0
24.638765184 279.0
24.665025750 289.0
24.691286315 277.0
24.717546880 269.0
24.743807446 266.0
24.770068011 266.0
24.796328576 289.0
24.822589142 277.0
24.848849707 303.0
24.875110273 279.0
24.901370838 259.0
24.927631403 269.0
24.953891969 264.0
24.980152534 270.0
25.006413099 274.0
25.032673665 257.0
25.058934230 271.0
25.085194795 250.0
25.111455361 254.0
25.137715926 267.0
25.163976491 231.0
25.190237057 249.0
25.216497622 274.0
25.242758188 223.0
25.269018753 263.0
25.295279318 267.0
25.321539884 267.0
25.347800449 229.0
25.374061014 225.0
25.400321580 250.0
25.426582145 242.0
25.452842710 247.0
25.479103276 264.0
25.505363841 230.0
25.531624406 240.0
25.557884972 246.0
25.584145537 297.0
25.610406103 272.0
25.636666668 256.0
25.662927233 239.0
25.689187799 265.0
25.715448364 248.0
25.741708929 256.0
25.767969495 249.0
25.794230060 242.0
25.820490625 245.0
25.846751191 247.0
25.873011756 225.0
25.899272321 271.0
25.925532887 258.0
25.951793452 226.0
25.978054018 255.0
26.004314583 256.0
26.030575148 248.0
26.056835714 229.0
26.083096279 254.0
26.109356844 222.0
26.135617410 228.0
26.161877975 236.0
26.188138540 231.0
26.214399106 211.0
26.240659671 217.0
26.266920237 252.0
26.293180802 218.0
26.319441367 254.0
26.345701933 214.0
26.371962498 238.0
26.398223063 231.0
26.424483629 216.0
26.450744194 205.0
26.477004759 228.0
26.503265325 200.0
26.529525890 204.0
26.555786455 204.0
26.582047021 204.0
26.608307586 204.0
26.634568152 223.0
26.660828717 218.0
26.687089282 217.0
26.713349848 228.0
26.739610413 219.0
26.765870978 227.0
26.792131544 193.0
26.818392109 223.0
26.844652674 203.0
26.870913240 231.0
26.897173805 202.0
26.923434370 214.0
26.949694936 206.0
26.975955501 216.0
27.002216067 165.0
27.028476632 195.0
27.054737197 200.0
27.080997763 210.0
27.107258328 192.0
27.133518893 182.0
27.159779459 228.0
27.186040024 206.0
27.212300589 209.0
27.238561155 193.0
27.264821720 181.0
27.291082285 180.0
27.317342851 195.0
27.343603416 182.0
27.369863982 179.0
27.396124547 155.0
27.422385112 175.0
27.448645678 165.0
27.474906243 197.0
27.501166808 189.0
27.527427374 193.0
27.553687939 187.0
27.579948504 201.0
27.606209070 193.0
27.632469635 231.0
27.658730200 199.0
27.684990766 178.0
27.711251331 185.0
27.737511897 212.0
27.763772462 243.0
27.790033027 185.0
27.816293593 198.0
27.842554158 208.0
27.868814723 180.0
27.895075289 224.0
27.921335854 169.0
27.947596419 200.0
27.973856985 187.0
28.000117550 209.0
28.026378115 232.0
28.052638681 211.0
28.078899246 215.0
28.105159812 215.0
28.131420377 206.0
28.157680942 185.0
28.183941508 198.0
28.210202073 236.0
28.236462638 206.0
28.262723204 180.0
28.288983769 212.0
28.315244334 221.0
28.341504900 210.0
28.367765465 187.0
28.394026030 207.0
28.420286596 190.0
28.446547161 229.0
28.472807727 207.0
28.499068292 211.0
28.525328857 211.0
28.551589423 200.0
28.577849988 194.0
28.604110553 203.0
28.630371119 215.0
28.656631684 231.0
28.682892249 207.0
28.709152815 218.0
28.735413380 205.0
28.761673946 207.0
28.787934511 225.0
28.814195076 212.0
28.840455642 210.0
28.866716207 199.0
28.892976772 205.0
28.919237338 200.0
28.945497903 191.0
28.971758468 212.0
28.998019034 227.0
29.024279599 235.0
29.050540164 199.0
29.076800730 195.0
29.103061295 233.0
29.129321861 235.0
29.155582426 259.0
29.181842991 231.0
29.208103557 225.0
29.234364122 222.0
29.260624687 208.0
29.286885253 193.0
29.313145818 223.0
29.339406383 244.0
29.365666949 239.0
29.391927514 248.0
29.418188079 263.0
29.444448645 283.0
29.470709210 280.0
29.496969776 305.0
29.523230341 323.0
29.549490906 314.0
29.575751472 322.0
29.602012037 305.0
29.628272602 361.0
29.654533168 344.0
29.680793733 349.0
29.707054298 377.0
29.733314864 356.0
29.759575429 360.0
29.785835994 405.0
29.812096560 388.0
29.838357125 415.0
29.864617691 402.0
29.890878256 426.0
29.917138821 440.0
29.943399387 422.0
29.969659952 439.0
29.995920517 460.0
30.022181083 467.0
30.048441648 492.0
30.074702213 484.0
30.100962779 515.0
30.127223344 560.0
30.153483909 545.0
30.179744475 577.0
30.206005040 582.0
30.232265606 560.0
30.258526171 587.0
30.284786736 594.0
30.311047302 544.0
30.337307867 580.0
30.363568432 544.0
30.389828998 599.0
30.416089563 592.0
30.442350128 593.0
30.468610694 583.0
30.494871259 574.0
30.521131824 642.0
30.547392390 586.0
30.573652955 665.0
30.599913521 547.0
30.626174086 591.0
30.652434651 592.0
30.678695217 594.0
30.704955782 567.0
30.731216347 592.0
30.757476913 610.0
30.783737478 579.0
30.809998043 599.0
30.836258609 670.0
30.862519174 615.0
30.888779739 589.0
30.915040305 576.0
30.941300870 591.0
30.967561436 612.0
30.993822001 612.0
31.020082566 610.0
31.046343132 555.0
31.072603697 574.0
31.098864262 601.0
31.125124828 562.0
31.151385393 590.0
31.177645958 587.0
31.203906524 567.0
31.230167089 561.0
31.256427654 541.0
31.282688220 505.0
31.308948785 540.0
31.335209351 549.0
31.361469916 507.0
31.387730481 492.0
31.413991047 475.0
31.440251612 539.0
31.466512177 485.0
31.492772743 481.0
31.519033308 393.0
31.545293873 432.0
31.571554439 336.0
31.597815004 321.0
31.624075570 293.0
31.650336135 287.0
31.676596700 228.0
31.702857266 234.0
31.729117831 201.0
31.755378396 201.0
31.781638962 197.0
31.807899527 199.0
31.834160092 193.0
31.860420658 166.0
31.886681223 157.0
31.912941788 185.0
31.939202354 158.0
31.965462919 163.0
31.991723485 160.0
32.017984050 195.0
32.044244615 143.0
32.070505181 160.0
32.096765746 150.0
32.123026311 169.0
32.149286877 157.0
32.175547442 138.0
32.201808007 141.0
32.228068573 153.0
32.254329138 142.0
32.280589703 141.0
32.306850269 144.0
32.333110834 142.0
32.359371400 138.0
32.385631965 142.0
32.411892530 140.0
32.438153096 145.0
32.464413661 145.0
32.490674226 161.0
32.516934792 148.0
32.543195357 140.0
32.569455922 129.0
32.595716488 138.0
32.621977053 141.0
32.648237618 152.0
32.674498184 143.0
32.700758749 146.0
32.727019315 129.0
32.753279880 124.0
32.779540445 130.0
32.805801011 138.0
32.832061576 133.0
32.858322141 147.0
32.884582707 161.0
32.910843272 138.0
32.937103837 163.0
32.963364403 157.0
32.989624968 168.0
33.015885533 141.0
33.042146099 155.0
33.068406664 166.0
33.094667230 167.0
33.120927795 161.0
33.147188360 166.0
33.173448926 175.0
33.199709491 162.0
33.225970056 183.0
33.252230622 159.0
33.278491187 190.0
33.304751752 181.0
33.331012318 188.0
33.357272883 166.0
33.383533448 202.0
33.409794014 183.0
33.436054579 203.0
33.462315145 188.0
33.488575710 200.0
33.514836275 203.0
33.541096841 201.0
33.567357406 202.0
33.593617971 201.0
33.619878537 194.0
33.646139102 212.0
33.672399667 207.0
33.698660233 229.0
33.724920798 200.0
33.751181363 224.0
33.777441929 237.0
33.803702494 210.0
33.829963060 199.0
33.856223625 209.0
33.882484190 223.0
33.908744756 251.0
33.935005321 222.0
33.961265886 221.0
33.987526452 225.0
34.013787017 258.0
34.040047582 244.0
34.066308148 227.0
34.092568713 248.0
34.118829279 275.0
34.145089844 273.0
34.171350409 247.0
34.197610975 256.0
34.223871540 229.0
34.250132105 265.0
34.276392671 249.0
34.302653236 222.0
34.328913801 261.0
34.355174367 254.0
34.381434932 208.0
34.407695497 264.0
34.433956063 245.0
34.460216628 226.0
34.486477194 231.0
34.512737759 252.0
34.538998324 232.0
34.565258890 239.0
34.591519455 230.0
34.617780020 262.0
34.644040586 224.0
34.670301151 224.0
34.696561716 232.0
34.722822282 225.0
34.749082847 248.0
34.775343412 231.0
34.801603978 218.0
34.827864543 229.0
34.854125109 234.0
34.880385674 241.0
34.906646239 223.0
34.932906805 227.0
34.959167370 264.0
34.985427935 226.0
35.011688501 209.0
35.037949066 227.0
35.064209631 214.0
35.090470197 211.0
35.116730762 208.0
35.142991327 226.0
35.169251893 206.0
35.195512458 212.0
35.221773024 204.0
35.248033589 195.0
35.274294154 201.0
35.300554720 194.0
35.326815285 207.0
35.353075850 180.0
35.379336416 176.0
35.405596981 181.0
35.431857546 177.0
35.458118112 156.0
35.484378677 171.0
35.510639242 171.0
35.536899808 170.0
35.563160373 162.0
35.589420939 131.0
35.615681504 153.0
35.641942069 138.0
35.668202635 143.0
35.694463200 140.0
35.720723765 128.0
35.746984331 139.0
35.773244896 123.0
35.799505461 112.0
35.825766027 128.0
35.852026592 120.0
35.878287157 138.0
35.904547723 122.0
35.930808288 88.0
35.957068854 136.0
35.983329419 130.0
36.009589984 118.0
36.035850550 129.0
36.062111115 125.0
36.088371680 114.0
36.114632246 148.0
36.140892811 137.0
36.167153376 118.0
36.193413942 137.0
36.219674507 139.0
36.245935072 135.0
36.272195638 153.0
36.298456203 155.0
36.324716769 179.0
36.350977334 141.0
36.377237899 161.0
36.403498465 137.0
36.429759030 183.0
36.456019595 160.0
36.482280161 171.0
36.508540726 193.0
36.534801291 178.0
36.561061857 170.0
36.587322422 167.0
36.613582987 166.0
36.639843553 192.0
36.666104118 192.0
36.692364684 197.0
36.718625249 186.0
36.744885814 210.0
36.771146380 210.0
36.797406945 191.0
36.823667510 205.0
36.849928076 226.0
36.876188641 192.0
36.902449206 215.0
36.928709772 218.0
36.954970337 251.0
36.981230903 250.0
37.007491468 217.0
37.033752033 254.0
37.060012599 234.0
37.086273164 247.0
37.112533729 249.0
37.138794295 248.0
37.165054860 245.0
37.191315425 267.0
37.217575991 250.0
37.243836556 250.0
37.270097121 251.0
37.296357687 263.0
37.322618252 270.0
37.348878818 259.0
37.375139383 292.0
37.401399948 278.0
37.427660514 270.0
37.453921079 274.0
37.480181644 296.0
37.506442210 321.0
37.532702775 266.0
37.558963340 325.0
37.585223906 287.0
37.611484471 282.0
37.637745036 298.0
37.664005602 281.0
37.690266167 317.0
37.716526733 266.0
37.742787298 274.0
37.769047863 287.0
37.795308429 295.0
37.821568994 295.0
37.847829559 308.0
37.874090125 298.0
37.900350690 286.0
37.926611255 301.0
37.952871821 292.0
37.979132386 293.0
38.005392951 296.0
38.031653517 310.0
38.057914082 303.0
38.084174648 319.0
38.110435213 301.0
38.136695778 309.0
38.162956344 307.0
38.189216909 289.0
38.215477474 310.0
38.241738040 272.0
38.267998605 280.0
38.294259170 286.0
38.320519736 264.0
38.346780301 265.0
38.373040866 284.0
38.399301432 313.0
38.425561997 274.0
38.451822563 265.0
38.478083128 282.0
38.504343693 298.0
38.530604259 256.0
38.556864824 253.0
38.583125389 259.0
38.609385955 295.0
38.635646520 265.0
38.661907085 233.0
38.688167651 254.0
38.714428216 229.0
38.740688781 262.0
38.766949347 231.0
38.793209912 238.0
38.819470478 212.0
38.845731043 183.0
38.871991608 219.0
38.898252174 209.0
38.924512739 208.0
38.950773304 178.0
38.977033870 158.0
39.003294435 164.0
39.029555000 135.0
39.055815566 134.0
39.082076131 165.0
39.108336696 137.0
39.134597262 121.0
39.160857827 120.0
39.187118393 118.0
39.213378958 136.0
39.239639523 137.0
39.265900089 107.0
39.292160654 126.0
39.318421219 115.0
39.344681785 103.0
39.370942350 95.0
39.397202915 112.0
39.423463481 104.0
39.449724046 100.0
39.475984612 118.0
39.502245177 118.0
39.528505742 120.0
39.554766308 99.0
39.581026873 107.0
39.607287438 129.0
39.633548004 106.0
39.659808569 112.0
39.686069134 135.0
39.712329700 124.0
39.738590265 116.0
39.764850830 133.0
39.791111396 110.0
39.817371961 113.0
39.843632527 97.0
39.869893092 125.0
39.896153657 106.0
39.922414223 99.0
39.948674788 115.0
39.974935353 106.0
40.001195919 100.0
40.027456484 103.0
40.053717049 115.0
40.079977615 114.0
40.106238180 126.0
40.132498745 114.0
40.158759311 94.0
40.185019876 106.0
40.211280442 111.0
40.237541007 100.0
40.263801572 101.0
40.290062138 107.0
40.316322703 104.0
40.342583268 96.0
40.368843834 118.0
40.395104399 125.0
40.421364964 86.0
40.447625530 112.0
40.473886095 118.0
40.500146660 91.0
40.526407226 88.0
40.552667791 102.0
40.578928357 87.0
40.605188922 92.0
40.631449487 95.0
40.657710053 83.0
40.683970618 115.0
40.710231183 113.0
40.736491749 88.0
40.762752314 78.0
40.789012879 104.0
40.815273445 99.0
40.841534010 74.0
40.867794575 102.0
40.894055141 84.0
40.920315706 90.0
40.946576272 113.0
40.972836837 105.0
40.999097402 120.0
41.025357968 83.0
41.051618533 81.0
41.077879098 102.0
41.104139664 110.0
41.130400229 95.0
41.156660794 88.0
41.182921360 93.0
41.209181925 91.0
41.235442490 111.0
41.261703056 100.0
41.287963621 96.0
41.314224187 105.0
41.340484752 83.0
41.366745317 105.0
41.393005883 108.0
41.419266448 104.0
41.445527013 93.0
41.471787579 111.0
41.498048144 103.0
41.524308709 107.0
41.550569275 98.0
41.576829840 93.0
41.603090405 114.0
41.629350971 102.0
41.655611536 86.0
41.681872102 105.0
41.708132667 88.0
41.734393232 97.0
41.760653798 85.0
41.786914363 102.0
41.813174928 84.0
41.839435494 122.0
41.865696059 99.0
41.891956624 99.0
41.918217190 103.0
41.944477755 104.0
41.970738320 110.0
41.996998886 104.0
42.023259451 112.0
42.049520017 123.0
42.075780582 99.0
42.102041147 94.0
42.128301713 114.0
42.154562278 106.0
42.180822843 120.0
42.207083409 110.0
42.233343974 114.0
42.259604539 116.0
42.285865105 126.0
42.312125670 123.0
42.338386236 107.0
42.364646801 136.0
42.390907366 127.0
42.417167932 139.0
42.443428497 137.0
42.469689062 163.0
42.495949628 131.0
42.522210193 134.0
42.548470758 121.0
42.574731324 166.0
42.600991889 155.0
42.627252454 120.0
42.653513020 149.0
42.679773585 167.0
42.706034151 145.0
42.732294716 137.0
42.758555281 147.0
42.784815847 155.0
42.811076412 143.0
42.837336977 157.0
42.863597543 156.0
42.889858108 164.0
42.916118673 155.0
42.942379239 176.0
42.968639804 155.0
42.994900369 201.0
43.021160935 185.0
43.047421500 167.0
43.073682066 189.0
43.099942631 182.0
43.126203196 177.0
43.152463762 191.0
43.178724327 198.0
43.204984892 205.0
43.231245458 178.0
43.257506023 163.0
43.283766588 227.0
43.310027154 177.0
43.336287719 191.0
43.362548284 189.0
43.388808850 189.0
43.415069415 195.0
43.441329981 206.0
43.467590546 202.0
43.493851111 200.0
43.520111677 200.0
43.546372242 212.0
43.572632807 235.0
43.598893373 206.0
43.625153938 214.0
43.651414503 205.0
43.677675069 187.0
43.703935634 214.0
43.730196199 210.0
43.756456765 185.0
43.782717330 197.0
43.808977896 218.0
43.835238461 209.0
43.861499026 214.0
43.887759592 217.0
43.914020157 242.0
43.940280722 207.0
43.966541288 221.0
43.992801853 223.0
44.019062418 219.0
44.045322984 226.0
44.071583549 227.0
44.097844114 229.0
44.124104680 205.0
44.150365245 234.0
44.176625811 204.0
44.202886376 215.0
44.229146941 237.0
44.255407507 210.0
44.281668072 191.0
44.307928637 212.0
44.334189203 241.0
44.360449768 204.0
44.386710333 212.0
44.412970899 241.0
44.439231464 220.0
44.465492029 217.0
44.491752595 195.0
44.518013160 226.0
44.544273726 225.0
44.570534291 202.0
44.596794856 223.0
44.623055422 218.0
44.649315987 204.0
44.675576552 234.0
44.701837118 223.0
44.728097683 205.0
44.754358248 185.0
44.780618814 215.0
44.806879379 212.0
44.833139945 192.0
44.859400510 239.0
44.885661075 228.0
44.911921641 197.0
44.938182206 209.0
44.964442771 184.0
44.990703337 167.0
45.016963902 196.0
45.043224467 205.0
45.069485033 192.0
45.095745598 167.0
45.122006163 186.0
45.148266729 184.0
45.174527294 179.0
45.200787860 166.0
45.227048425 162.0
45.253308990 144.0
45.279569556 164.0
45.305830121 169.0
45.332090686 148.0
45.358351252 141.0
45.384611817 150.0
45.410872382 132.0
45.437132948 152.0
45.463393513 139.0
45.489654078 143.0
45.515914644 136.0
45.542175209 162.0
45.568435775 132.0
45.594696340 135.0
45.620956905 130.0
45.647217471 139.0
45.673478036 133.0
45.699738601 160.0
45.725999167 137.0
45.752259732 130.0
45.778520297 120.0
45.804780863 138.0
45.831041428 121.0
45.857301993 140.0
45.883562559 132.0
45.909823124 151.0
45.936083690 137.0
45.962344255 148.0
45.988604820 140.0
46.014865386 143.0
46.041125951 170.0
46.067386516 126.0
46.093647082 165.0
46.119907647 126.0
46.146168212 124.0
46.172428778 131.0
46.198689343 157.0
46.224949908 146.0
46.251210474 165.0
46.277471039 137.0
46.303731605 162.0
46.329992170 165.0
46.356252735 146.0
46.382513301 133.0
46.408773866 145.0
46.435034431 125.0
46.461294997 139.0
46.487555562 144.0
46.513816127 135.0
46.540076693 146.0
46.566337258 134.0
46.592597823 132.0
46.618858389 145.0
46.645118954 157.0
46.671379520 141.0
46.697640085 147.0
46.723900650 121.0
46.750161216 139.0
46.776421781 139.0
46.802682346 146.0
46.828942912 148.0
46.855203477 148.0
46.881464042 125.0
46.907724608 142.0
46.933985173 139.0
46.960245738 127.0
46.986506304 124.0
47.012766869 136.0
47.039027435 135.0
47.065288000 153.0
47.091548565 131.0
47.117809131 127.0
47.144069696 138.0
47.170330261 128.0
47.196590827 145.0
47.222851392 131.0
47.249111957 135.0
47.275372523 111.0
47.301633088 142.0
47.327893653 133.0
47.354154219 125.0
47.380414784 108.0
47.406675350 138.0
47.432935915 147.0
47.459196480 119.0
47.485457046 121.0
47.511717611 139.0
47.537978176 146.0
47.564238742 117.0
47.590499307 106.0
47.616759872 124.0
47.643020438 152.0
47.669281003 128.0
47.695541569 121.0
47.721802134 142.0
47.748062699 118.0
47.774323265 136.0
47.800583830 136.0
47.826844395 132.0
47.853104961 134.0
47.879365526 124.0
47.905626091 126.0
47.931886657 111.0
47.958147222 106.0
47.984407787 134.0
48.010668353 122.0
48.036928918 123.0
48.063189484 115.0
48.089450049 125.0
48.115710614 136.0
48.141971180 122.0
48.168231745 108.0
48.194492310 140.0
48.220752876 122.0
48.247013441 121.0
48.273274006 119.0
48.299534572 127.0
48.325795137 134.0
48.352055702 144.0
48.378316268 131.0
48.404576833 103.0
48.430837399 128.0
48.457097964 114.0
48.483358529 138.0
48.509619095 122.0
48.535879660 122.0
48.562140225 129.0
48.588400791 128.0
48.614661356 131.0
48.640921921 138.0
48.667182487 109.0
48.693443052 134.0
48.719703617 127.0
48.745964183 132.0
48.772224748 133.0
48.798485314 153.0
48.824745879 131.0
48.851006444 123.0
48.877267010 136.0
48.903527575 115.0
48.929788140 132.0
48.956048706 148.0
48.982309271 144.0
49.008569836 134.0
49.034830402 136.0
49.061090967 159.0
49.087351532 125.0
49.113612098 141.0
49.139872663 161.0
49.166133229 132.0
49.192393794 129.0
49.218654359 146.0
49.244914925 155.0
49.271175490 138.0
49.297436055 150.0
49.323696621 145.0
49.349957186 149.0
49.376217751 137.0
49.402478317 150.0
49.428738882 141.0
49.454999447 120.0
49.481260013 138.0
49.507520578 157.0
49.533781144 129.0
49.560041709 128.0
49.586302274 117.0
49.612562840 152.0
49.638823405 135.0
49.665083970 143.0
49.691344536 144.0
49.717605101 139.0
49.743865666 119.0
49.770126232 149.0
49.796386797 140.0
49.822647362 146.0
49.848907928 131.0
49.875168493 144.0
49.901429059 131.0
49.927689624 144.0
49.953950189 120.0
49.980210755 149.0
50.006471320 122.0
