10.011630280 340.0
10.037890845 408.0
10.064151411 383.0
10.090411976 387.0
10.116672541 422.0
10.142933107 388.0
10.169193672 371.0
10.195454238 376.0
10.221714803 356.0
10.247975368 362.0
10.274235934 379.0
10.300496499 373.0
10.326757064 404.0
10.353017630 370.0
10.379278195 380.0
10.405538760 349.0
10.431799326 400.0
10.458059891 354.0
10.484320456 350.0
10.510581022 372.0
10.536841587 359.0
10.563102153 382.0
10.589362718 343.0
10.615623283 367.0
10.641883849 363.0
10.668144414 381.0
10.694404979 369.0
10.720665545 372.0
10.746926110 370.0
10.773186675 358.0
10.799447241 368.0
10.825707806 361.0
10.851968371 356.0
10.878228937 367.0
10.904489502 361.0
10.930750068 324.0
10.957010633 346.0
10.983271198 332.0
11.009531764 349.0
11.035792329 340.0
11.062052894 349.0
11.088313460 356.0
11.114574025 350.0
11.140834590 359.0
11.167095156 357.0
11.193355721 374.0
11.219616286 351.0
11.245876852 366.0
11.272137417 367.0
11.298397983 356.0
11.324658548 363.0
11.350919113 375.0
11.377179679 352.0
11.403440244 351.0
11.429700809 379.0
11.455961375 336.0
11.482221940 360.0
11.508482505 376.0
11.534743071 364.0
11.561003636 322.0
11.587264201 354.0
11.613524767 368.0
11.639785332 333.0
11.666045898 352.0
11.692306463 329.0
11.718567028 373.0
11.744827594 324.0
11.771088159 345.0
11.797348724 307.0
11.823609290 311.0
11.849869855 338.0
11.876130420 348.0
11.902390986 321.0
11.928651551 329.0
11.954912116 314.0
11.981172682 360.0
12.007433247 360.0
12.033693813 333.0
12.059954378 329.0
12.086214943 310.0
12.112475509 353.0
12.138736074 327.0
12.164996639 315.0
12.191257205 354.0
12.217517770 326.0
12.243778335 339.0
12.270038901 328.0
12.296299466 313.0
12.322560031 312.0
12.348820597 346.0
12.375081162 350.0
12.401341728 353.0
12.427602293 352.0
12.453862858 327.0
12.480123424 380.0
12.506383989 337.0
12.532644554 326.0
12.558905120 355.0
12.585165685 333.0
12.611426250 308.0
12.637686816 302.0
12.663947381 338.0
12.690207947 340.0
12.716468512 357.0
12.742729077 280.0
12.768989643 319.0
12.795250208 361.0
12.821510773 357.0
12.847771339 323.0
12.874031904 319.0
12.900292469 319.0
12.926553035 341.0
12.952813600 317.0
12.979074165 338.0
13.005334731 329.0
13.031595296 352.0
13.057855862 324.0
13.084116427 289.0
13.110376992 315.0
13.136637558 317.0
13.162898123 297.0
13.189158688 304.0
13.215419254 330.0
13.241679819 289.0
13.267940384 273.0
13.294200950 304.0
13.320461515 311.0
13.346722080 318.0
13.372982646 299.0
13.399243211 322.0
13.425503777 299.0
13.451764342 289.0
13.478024907 305.0
13.504285473 318.0
13.530546038 291.0
13.556806603 297.0
13.583067169 357.0
13.609327734 284.0
13.635588299 319.0
13.661848865 299.0
13.688109430 283.0
13.714369995 287.0
13.740630561 293.0
13.766891126 300.0
13.793151692 283.0
13.819412257 314.0
13.845672822 307.0
13.871933388 282.0
13.898193953 282.0
13.924454518 291.0
13.950715084 282.0
13.976975649 306.0
14.003236214 325.0
14.029496780 288.0
14.055757345 288.0
14.082017910 292.0
14.108278476 287.0
14.134539041 288.0
14.160799607 292.0
14.187060172 283.0
14.213320737 290.0
14.239581303 279.0
14.265841868 300.0
14.292102433 295.0
14.318362999 273.0
14.344623564 280.0
14.370884129 327.0
14.397144695 287.0
14.423405260 296.0
14.449665825 275.0
14.475926391 286.0
14.502186956 293.0
14.528447522 276.0
14.554708087 307.0
14.580968652 283.0
14.607229218 301.0
14.633489783 280.0
14.659750348 273.0
14.686010914 309.0
14.712271479 298.0
14.738532044 296.0
14.764792610 272.0
14.791053175 294.0
14.817313740 309.0
14.843574306 304.0
14.869834871 265.0
14.896095437 304.0
14.922356002 306.0
14.948616567 300.0
14.974877133 366.0
15.001137698 341.0
15.027398263 357.0
15.053658829 400.0
15.079919394 455.0
15.106179959 440.0
15.132440525 430.0
15.158701090 465.0
15.184961655 484.0
15.211222221 515.0
15.237482786 510.0
15.263743352 564.0
15.290003917 580.0
15.316264482 573.0
15.342525048 618.0
15.368785613 605.0
15.395046178 608.0
15.421306744 637.0
15.447567309 638.0
15.473827874 633.0
15.500088440 667.0
15.526349005 629.0
15.552609571 646.0
15.578870136 651.0
15.605130701 628.0
15.631391267 649.0
15.657651832 664.0
15.683912397 685.0
15.710172963 644.0
15.736433528 698.0
15.762694093 693.0
15.788954659 649.0
15.815215224 690.0
15.841475789 596.0
15.867736355 543.0
15.893996920 615.0
15.920257486 547.0
15.946518051 509.0
15.972778616 476.0
15.999039182 411.0
16.025299747 397.0
16.051560312 394.0
16.077820878 338.0
16.104081443 307.0
16.130342008 339.0
16.156602574 299.0
16.182863139 262.0
16.209123704 275.0
16.235384270 289.0
16.261644835 256.0
16.287905401 267.0
16.314165966 281.0
16.340426531 273.0
16.366687097 271.0
16.392947662 295.0
16.419208227 238.0
16.445468793 263.0
16.471729358 267.0
16.497989923 251.0
16.524250489 254.0
16.550511054 283.0
16.576771619 291.0
16.603032185 257.0
16.629292750 276.0
16.655553316 276.0
16.681813881 272.0
16.708074446 267.0
16.734335012 271.0
16.760595577 249.0
16.786856142 270.0
16.813116708 250.0
16.839377273 241.0
16.865637838 293.0
16.891898404 278.0
16.918158969 258.0
16.944419534 236.0
16.970680100 264.0
16.996940665 261.0
17.023201231 270.0
17.049461796 255.0
17.075722361 261.0
17.101982927 237.0
17.128243492 294.0
17.154504057 248.0
17.180764623 267.0
17.207025188 288.0
17.233285753 250.0
17.259546319 274.0
17.285806884 253.0
17.312067449 283.0
17.338328015 238.0
17.364588580 258.0
17.390849146 263.0
17.417109711 294.0
17.443370276 281.0
17.469630842 271.0
17.495891407 254.0
17.522151972 267.0
17.548412538 296.0
17.574673103 276.0
17.600933668 257.0
17.627194234 257.0
17.653454799 251.0
17.679715364 287.0
17.705975930 246.0
17.732236495 255.0
17.758497061 267.0
17.784757626 274.0
17.811018191 252.0
17.837278757 274.0
17.863539322 269.0
17.889799887 277.0
17.916060453 284.0
17.942321018 280.0
17.968581583 287.0
17.994842149 256.0
18.021102714 300.0
18.047363280 296.0
18.073623845 238.0
18.099884410 292.0
18.126144976 280.0
18.152405541 271.0
18.178666106 266.0
18.204926672 274.0
18.231187237 260.0
18.257447802 278.0
18.283708368 292.0
18.309968933 296.0
18.336229498 276.0
18.362490064 273.0
18.388750629 273.0
18.415011195 294.0
18.441271760 269.0
18.467532325 281.0
18.493792891 270.0
18.520053456 280.0
18.546314021 247.0
18.572574587 285.0
18.598835152 255.0
18.625095717 271.0
18.651356283 260.0
18.677616848 288.0
18.703877413 302.0
18.730137979 230.0
18.756398544 272.0
18.782659110 295.0
18.808919675 303.0
18.835180240 316.0
18.861440806 307.0
18.887701371 270.0
18.913961936 298.0
18.940222502 308.0
18.966483067 280.0
18.992743632 287.0
19.019004198 301.0
19.045264763 307.0
19.071525328 287.0
19.097785894 252.0
19.124046459 270.0
19.150307025 265.0
19.176567590 297.0
19.202828155 261.0
19.229088721 283.0
19.255349286 284.0
19.281609851 317.0
19.307870417 289.0
19.334130982 294.0
19.360391547 286.0
19.386652113 299.0
19.412912678 283.0
19.439173243 307.0
19.465433809 301.0
19.491694374 309.0
19.517954940 290.0
19.544215505 328.0
19.570476070 307.0
19.596736636 282.0
19.622997201 288.0
19.649257766 343.0
19.675518332 317.0
19.701778897 283.0
19.728039462 291.0
19.754300028 307.0
19.780560593 309.0
19.806821158 255.0
19.833081724 293.0
19.859342289 333.0
19.885602855 313.0
19.911863420 307.0
19.938123985 274.0
19.964384551 307.0
19.990645116 290.0
20.016905681 304.0
20.043166247 322.0
20.069426812 303.0
20.095687377 293.0
20.121947943 305.0
20.148208508 280.0
20.174469073 320.0
20.200729639 307.0
20.226990204 349.0
20.253250770 307.0
20.279511335 297.0
20.305771900 355.0
20.332032466 289.0
20.358293031 308.0
20.384553596 329.0
20.410814162 312.0
20.437074727 310.0
20.463335292 309.0
20.489595858 322.0
20.515856423 297.0
20.542116988 334.0
20.568377554 282.0
20.594638119 338.0
20.620898685 317.0
20.647159250 279.0
20.673419815 318.0
20.699680381 304.0
20.725940946 298.0
20.752201511 320.0
20.778462077 351.0
20.804722642 346.0
20.830983207 359.0
20.857243773 336.0
20.883504338 298.0
20.909764904 308.0
20.936025469 314.0
20.962286034 314.0
20.988546600 340.0
21.014807165 353.0
21.041067730 345.0
21.067328296 327.0
21.093588861 332.0
21.119849426 357.0
21.146109992 329.0
21.172370557 353.0
21.198631122 378.0
21.224891688 408.0
21.251152253 399.0
21.277412819 442.0
21.303673384 453.0
21.329933949 513.0
21.356194515 572.0
21.382455080 619.0
21.408715645 611.0
21.434976211 655.0
21.461236776 728.0
21.487497341 817.0
21.513757907 905.0
21.540018472 934.0
21.566279037 921.0
21.592539603 952.0
21.618800168 1037.0
21.645060734 1046.0
21.671321299 1039.0
21.697581864 1077.0
21.723842430 1055.0
21.750102995 1030.0
21.776363560 1082.0
21.802624126 1099.0
21.828884691 1106.0
21.855145256 1112.0
21.881405822 1095.0
21.907666387 1123.0
21.933926952 1075.0
21.960187518 1089.0
21.986448083 1094.0
22.012708649 1156.0
22.038969214 1151.0
22.065229779 1083.0
22.091490345 1097.0
22.117750910 1107.0
22.144011475 1081.0
22.170272041 1157.0
22.196532606 1094.0
22.222793171 1167.0
22.249053737 1111.0
22.275314302 1135.0
22.301574867 1088.0
22.327835433 1068.0
22.354095998 1068.0
22.380356564 1055.0
22.406617129 1072.0
22.432877694 1056.0
22.459138260 1000.0
22.485398825 1006.0
22.511659390 997.0
22.537919956 982.0
22.564180521 957.0
22.590441086 873.0
22.616701652 829.0
22.642962217 800.0
22.669222782 706.0
22.695483348 634.0
22.721743913 583.0
22.748004479 558.0
22.774265044 459.0
22.800525609 424.0
22.826786175 428.0
22.853046740 360.0
22.879307305 344.0
22.905567871 308.0
22.931828436 329.0
22.958089001 305.0
22.984349567 290.0
23.010610132 301.0
23.036870697 283.0
23.063131263 314.0
23.089391828 305.0
23.115652394 278.0
23.141912959 333.0
23.168173524 286.0
23.194434090 283.0
23.220694655 285.0
23.246955220 276.0
23.273215786 291.0
23.299476351 277.0
23.325736916 280.0
23.351997482 294.0
23.378258047 251.0
23.404518613 273.0
23.430779178 293.0
23.457039743 281.0
23.483300309 247.0
23.509560874 262.0
23.535821439 264.0
23.562082005 235.0
23.588342570 274.0
23.614603135 257.0
23.640863701 281.0
23.667124266 239.0
23.693384831 244.0
23.719645397 232.0
23.745905962 269.0
23.772166528 248.0
23.798427093 250.0
23.824687658 221.0
23.850948224 251.0
23.877208789 272.0
23.903469354 246.0
23.929729920 268.0
23.955990485 220.0
23.982251050 237.0
24.008511616 267.0
24.034772181 260.0
24.061032746 227.0
24.087293312 241.0
24.113553877 266.0
24.139814443 238.0
24.166075008 230.0
24.192335573 235.0
24.218596139 256.0
24.244856704 242.0
24.271117269 268.0
24.297377835 257.0
24.323638400 270.0
24.349898965 247.0
24.376159531 280.0
24.402420096 223.0
24.428680661 239.0
24.454941227 246.0
24.481201792 240.0
24.507462358 230.0
24.533722923 249.0
24.559983488 247.0
24.586244054 255.0
24.612504619 217.0
24.638765184 247.0
24.665025750 231.0
24.691286315 280.0
24.717546880 220.0
24.743807446 250.0
24.770068011 263.0
24.796328576 250.0
24.822589142 245.0
24.848849707 235.0
24.875110273 244.0
24.901370838 272.0
24.927631403 251.0
24.953891969 256.0
24.980152534 233.0
25.006413099 224.0
25.032673665 210.0
25.058934230 249.0
25.085194795 253.0
25.111455361 239.0
25.137715926 221.0
25.163976491 216.0
25.190237057 262.0
25.216497622 231.0
25.242758188 265.0
25.269018753 222.0
25.295279318 250.0
25.321539884 208.0
25.347800449 239.0
25.374061014 231.0
25.400321580 255.0
25.426582145 226.0
25.452842710 218.0
25.479103276 214.0
25.505363841 260.0
25.531624406 243.0
25.557884972 220.0
25.584145537 206.0
25.610406103 239.0
25.636666668 218.0
25.662927233 200.0
25.689187799 193.0
25.715448364 228.0
25.741708929 223.0
25.767969495 246.0
25.794230060 202.0
25.820490625 248.0
25.846751191 221.0
25.873011756 224.0
25.899272321 219.0
25.925532887 213.0
25.951793452 201.0
25.978054018 214.0
26.004314583 229.0
26.030575148 216.0
26.056835714 197.0
26.083096279 213.0
26.109356844 224.0
26.135617410 199.0
26.161877975 213.0
26.188138540 198.0
26.214399106 216.0
26.240659671 207.0
26.266920237 225.0
26.293180802 198.0
26.319441367 192.0
26.345701933 208.0
26.371962498 201.0
26.398223063 206.0
26.424483629 174.0
26.450744194 224.0
26.477004759 221.0
26.503265325 183.0
26.529525890 228.0
26.555786455 176.0
26.582047021 189.0
26.608307586 205.0
26.634568152 205.0
26.660828717 195.0
26.687089282 185.0
26.713349848 190.0
26.739610413 200.0
26.765870978 188.0
26.792131544 201.0
26.818392109 195.0
26.844652674 197.0
26.870913240 181.0
26.897173805 196.0
26.923434370 198.0
26.949694936 225.0
26.975955501 204.0
27.002216067 215.0
27.028476632 173.0
27.054737197 207.0
27.080997763 206.0
27.107258328 200.0
27.133518893 196.0
27.159779459 194.0
27.186040024 200.0
27.212300589 214.0
27.238561155 190.0
27.264821720 191.0
27.291082285 171.0
27.317342851 169.0
27.343603416 193.0
27.369863982 219.0
27.396124547 167.0
27.422385112 157.0
27.448645678 192.0
27.474906243 182.0
27.501166808 175.0
27.527427374 202.0
27.553687939 201.0
27.579948504 182.0
27.606209070 189.0
27.632469635 175.0
27.658730200 180.0
27.684990766 196.0
27.711251331 203.0
27.737511897 170.0
27.763772462 187.0
27.790033027 189.0
27.816293593 175.0
27.842554158 210.0
27.868814723 184.0
27.895075289 191.0
27.921335854 202.0
27.947596419 186.0
27.973856985 192.0
28.000117550 191.0
28.026378115 194.0
28.052638681 163.0
28.078899246 169.0
28.105159812 166.0
28.131420377 193.0
28.157680942 169.0
28.183941508 201.0
28.210202073 167.0
28.236462638 191.0
28.262723204 214.0
28.288983769 166.0
28.315244334 183.0
28.341504900 184.0
28.367765465 189.0
28.394026030 174.0
28.420286596 191.0
28.446547161 162.0
28.472807727 186.0
28.499068292 193.0
28.525328857 188.0
28.551589423 189.0
28.577849988 168.0
28.604110553 170.0
28.630371119 177.0
28.656631684 166.0
28.682892249 167.0
28.709152815 165.0
28.735413380 214.0
28.761673946 193.0
28.787934511 194.0
28.814195076 188.0
28.840455642 173.0
28.866716207 200.0
28.892976772 179.0
28.919237338 177.0
28.945497903 195.0
28.971758468 181.0
28.998019034 173.0
29.024279599 182.0
29.050540164 173.0
29.076800730 186.0
29.103061295 180.0
29.129321861 150.0
29.155582426 173.0
29.181842991 181.0
29.208103557 198.0
29.234364122 181.0
29.260624687 195.0
29.286885253 187.0
29.313145818 176.0
29.339406383 166.0
29.365666949 183.0
29.391927514 166.0
29.418188079 174.0
29.444448645 198.0
29.470709210 167.0
29.496969776 172.0
29.523230341 171.0
29.549490906 195.0
29.575751472 182.0
29.602012037 198.0
29.628272602 182.0
29.654533168 168.0
29.680793733 179.0
29.707054298 167.0
29.733314864 191.0
29.759575429 163.0
29.785835994 178.0
29.812096560 175.0
29.838357125 192.0
29.864617691 170.0
29.890878256 175.0
29.917138821 184.0
29.943399387 182.0
29.969659952 165.0
29.995920517 193.0
30.022181083 173.0
30.048441648 149.0
30.074702213 184.0
30.100962779 202.0
30.127223344 186.0
30.153483909 173.0
30.179744475 215.0
30.206005040 189.0
30.232265606 192.0
30.258526171 201.0
30.284786736 212.0
30.311047302 187.0
30.337307867 230.0
30.363568432 244.0
30.389828998 232.0
30.416089563 246.0
30.442350128 254.0
30.468610694 279.0
30.494871259 235.0
30.521131824 297.0
30.547392390 274.0
30.573652955 312.0
30.599913521 319.0
30.626174086 348.0
30.652434651 373.0
30.678695217 393.0
30.704955782 369.0
30.731216347 390.0
30.757476913 442.0
30.783737478 450.0
30.809998043 436.0
30.836258609 489.0
30.862519174 455.0
30.888779739 462.0
30.915040305 478.0
30.941300870 456.0
30.967561436 477.0
30.993822001 426.0
31.020082566 499.0
31.046343132 462.0
31.072603697 543.0
31.098864262 457.0
31.125124828 500.0
31.151385393 529.0
31.177645958 521.0
31.203906524 485.0
31.230167089 491.0
31.256427654 547.0
31.282688220 544.0
31.308948785 488.0
31.335209351 535.0
31.361469916 539.0
31.387730481 503.0
31.413991047 512.0
31.440251612 580.0
31.466512177 535.0
31.492772743 539.0
31.519033308 568.0
31.545293873 552.0
31.571554439 523.0
31.597815004 557.0
31.624075570 565.0
31.650336135 578.0
31.676596700 554.0
31.702857266 564.0
31.729117831 592.0
31.755378396 556.0
31.781638962 559.0
31.807899527 529.0
31.834160092 569.0
31.860420658 534.0
31.886681223 554.0
31.912941788 555.0
31.939202354 502.0
31.965462919 557.0
31.991723485 524.0
32.017984050 553.0
32.044244615 500.0
32.070505181 502.0
32.096765746 453.0
32.123026311 479.0
32.149286877 430.0
32.175547442 417.0
32.201808007 415.0
32.228068573 431.0
32.254329138 412.0
32.280589703 378.0
32.306850269 350.0
32.333110834 309.0
32.359371400 290.0
32.385631965 277.0
32.411892530 240.0
32.438153096 225.0
32.464413661 246.0
32.490674226 185.0
32.516934792 194.0
32.543195357 165.0
32.569455922 174.0
32.595716488 156.0
32.621977053 157.0
32.648237618 146.0
32.674498184 162.0
32.700758749 163.0
32.727019315 171.0
32.753279880 162.0
32.779540445 159.0
32.805801011 151.0
32.832061576 134.0
32.858322141 132.0
32.884582707 148.0
32.910843272 157.0
32.937103837 141.0
32.963364403 145.0
32.989624968 152.0
33.015885533 165.0
33.042146099 139.0
33.068406664 131.0
33.094667230 118.0
33.120927795 135.0
33.147188360 124.0
33.173448926 141.0
33.199709491 134.0
33.225970056 136.0
33.252230622 121.0
33.278491187 134.0
33.304751752 138.0
33.331012318 158.0
33.357272883 144.0
33.383533448 122.0
33.409794014 129.0
33.436054579 134.0
33.462315145 102.0
33.488575710 130.0
33.514836275 155.0
33.541096841 128.0
33.567357406 141.0
33.593617971 140.0
33.619878537 122.0
33.646139102 141.0
33.672399667 139.0
33.698660233 131.0
33.724920798 123.0
33.751181363 115.0
33.777441929 122.0
33.803702494 129.0
33.829963060 134.0
33.856223625 140.0
33.882484190 148.0
33.908744756 137.0
33.935005321 157.0
33.961265886 138.0
33.987526452 127.0
34.013787017 133.0
34.040047582 131.0
34.066308148 133.0
34.092568713 114.0
34.118829279 126.0
34.145089844 121.0
34.171350409 138.0
34.197610975 150.0
34.223871540 156.0
34.250132105 153.0
34.276392671 156.0
34.302653236 159.0
34.328913801 156.0
34.355174367 146.0
34.381434932 168.0
34.407695497 166.0
34.433956063 159.0
34.460216628 173.0
34.486477194 170.0
34.512737759 183.0
34.538998324 175.0
34.565258890 161.0
34.591519455 162.0
34.617780020 175.0
34.644040586 187.0
34.670301151 182.0
34.696561716 181.0
34.722822282 174.0
34.749082847 189.0
34.775343412 185.0
34.801603978 182.0
34.827864543 199.0
34.854125109 201.0
34.880385674 208.0
34.906646239 203.0
34.932906805 151.0
34.959167370 179.0
34.985427935 172.0
35.011688501 189.0
35.037949066 153.0
35.064209631 199.0
35.090470197 185.0
35.116730762 197.0
35.142991327 183.0
35.169251893 207.0
35.195512458 206.0
35.221773024 184.0
35.248033589 223.0
35.274294154 184.0
35.300554720 204.0
35.326815285 196.0
35.353075850 200.0
35.379336416 201.0
35.405596981 178.0
35.431857546 207.0
35.458118112 187.0
35.484378677 208.0
35.510639242 205.0
35.536899808 210.0
35.563160373 193.0
35.589420939 181.0
35.615681504 183.0
35.641942069 199.0
35.668202635 174.0
35.694463200 162.0
35.720723765 174.0
35.746984331 173.0
35.773244896 178.0
35.799505461 160.0
35.825766027 185.0
35.852026592 185.0
35.878287157 192.0
35.904547723 164.0
35.930808288 190.0
35.957068854 178.0
35.983329419 178.0
36.009589984 181.0
36.035850550 155.0
36.062111115 158.0
36.088371680 169.0
36.114632246 162.0
36.140892811 172.0
36.167153376 151.0
36.193413942 156.0
36.219674507 147.0
36.245935072 164.0
36.272195638 162.0
36.298456203 139.0
36.324716769 135.0
36.350977334 137.0
36.377237899 120.0
36.403498465 124.0
36.429759030 132.0
36.456019595 117.0
36.482280161 119.0
36.508540726 123.0
36.534801291 128.0
36.561061857 126.0
36.587322422 115.0
36.613582987 112.0
36.639843553 124.0
36.666104118 104.0
36.692364684 130.0
36.718625249 124.0
36.744885814 121.0
36.771146380 109.0
36.797406945 127.0
36.823667510 115.0
36.849928076 118.0
36.876188641 117.0
36.902449206 119.0
36.928709772 132.0
36.954970337 111.0
36.981230903 107.0
37.007491468 118.0
37.033752033 91.0
37.060012599 125.0
37.086273164 117.0
37.112533729 118.0
37.138794295 130.0
37.165054860 113.0
37.191315425 125.0
37.217575991 123.0
37.243836556 119.0
37.270097121 118.0
37.296357687 127.0
37.322618252 129.0
37.348878818 117.0
37.375139383 137.0
37.401399948 151.0
37.427660514 139.0
37.453921079 129.0
37.480181644 138.0
37.506442210 160.0
37.532702775 175.0
37.558963340 166.0
37.585223906 167.0
37.611484471 187.0
37.637745036 184.0
37.664005602 169.0
37.690266167 201.0
37.716526733 195.0
37.742787298 193.0
37.769047863 225.0
37.795308429 201.0
37.821568994 209.0
37.847829559 231.0
37.874090125 219.0
37.900350690 229.0
37.926611255 256.0
37.952871821 225.0
37.979132386 230.0
38.005392951 241.0
38.031653517 265.0
38.057914082 256.0
38.084174648 288.0
38.110435213 242.0
38.136695778 266.0
38.162956344 279.0
38.189216909 265.0
38.215477474 290.0
38.241738040 303.0
38.267998605 269.0
38.294259170 281.0
38.320519736 268.0
38.346780301 303.0
38.373040866 295.0
38.399301432 295.0
38.425561997 279.0
38.451822563 328.0
38.478083128 296.0
38.504343693 314.0
38.530604259 287.0
38.556864824 316.0
38.583125389 283.0
38.609385955 283.0
38.635646520 296.0
38.661907085 301.0
38.688167651 292.0
38.714428216 314.0
38.740688781 320.0
38.766949347 317.0
38.793209912 306.0
38.819470478 308.0
38.845731043 330.0
38.871991608 332.0
38.898252174 273.0
38.924512739 316.0
38.950773304 295.0
38.977033870 323.0
39.003294435 330.0
39.029555000 269.0
39.055815566 298.0
39.082076131 293.0
39.108336696 294.0
39.134597262 331.0
39.160857827 292.0
39.187118393 273.0
39.213378958 289.0
39.239639523 292.0
39.265900089 291.0
39.292160654 271.0
39.318421219 259.0
39.344681785 309.0
39.370942350 279.0
39.397202915 282.0
39.423463481 307.0
39.449724046 256.0
39.475984612 280.0
39.502245177 279.0
39.528505742 278.0
39.554766308 271.0
39.581026873 276.0
39.607287438 259.0
39.633548004 240.0
39.659808569 223.0
39.686069134 218.0
39.712329700 216.0
39.738590265 225.0
39.764850830 196.0
39.791111396 172.0
39.817371961 179.0
39.843632527 189.0
39.869893092 179.0
39.896153657 155.0
39.922414223 150.0
39.948674788 134.0
39.974935353 119.0
40.001195919 131.0
40.027456484 125.0
40.053717049 117.0
40.079977615 128.0
40.106238180 117.0
40.132498745 138.0
40.158759311 101.0
40.185019876 103.0
40.211280442 104.0
40.237541007 97.0
40.263801572 106.0
40.290062138 108.0
40.316322703 127.0
40.342583268 95.0
40.368843834 96.0
40.395104399 120.0
40.421364964 103.0
40.447625530 115.0
40.473886095 117.0
40.500146660 108.0
40.526407226 102.0
40.552667791 113.0
40.578928357 100.0
40.605188922 132.0
40.631449487 107.0
40.657710053 119.0
40.683970618 93.0
40.710231183 106.0
40.736491749 98.0
40.762752314 86.0
40.789012879 107.0
40.815273445 102.0
40.841534010 97.0
40.867794575 88.0
40.894055141 110.0
40.920315706 93.0
40.946576272 97.0
40.972836837 86.0
40.999097402 102.0
41.025357968 103.0
41.051618533 98.0
41.077879098 81.0
41.104139664 89.0
41.130400229 110.0
41.156660794 115.0
41.182921360 99.0
41.209181925 114.0
41.235442490 91.0
41.261703056 97.0
41.287963621 104.0
41.314224187 100.0
41.340484752 98.0
41.366745317 101.0
41.393005883 87.0
41.419266448 91.0
41.445527013 118.0
41.471787579 106.0
41.498048144 99.0
41.524308709 97.0
41.550569275 77.0
41.576829840 105.0
41.603090405 93.0
41.629350971 91.0
41.655611536 95.0
41.681872102 103.0
41.708132667 94.0
41.734393232 82.0
41.760653798 113.0
41.786914363 109.0
41.813174928 119.0
41.839435494 93.0
41.865696059 104.0
41.891956624 109.0
41.918217190 91.0
41.944477755 91.0
41.970738320 96.0
41.996998886 112.0
42.023259451 93.0
42.049520017 110.0
42.075780582 103.0
42.102041147 105.0
42.128301713 89.0
42.154562278 80.0
42.180822843 96.0
42.207083409 96.0
42.233343974 110.0
42.259604539 109.0
42.285865105 104.0
42.312125670 127.0
42.338386236 102.0
42.364646801 104.0
42.390907366 115.0
42.417167932 122.0
42.443428497 104.0
42.469689062 100.0
42.495949628 79.0
42.522210193 119.0
42.548470758 90.0
42.574731324 105.0
42.600991889 84.0
42.627252454 88.0
42.653513020 80.0
42.679773585 110.0
42.706034151 102.0
42.732294716 90.0
42.758555281 108.0
42.784815847 85.0
42.811076412 90.0
42.837336977 105.0
42.863597543 95.0
42.889858108 81.0
42.916118673 92.0
42.942379239 95.0
42.968639804 82.0
42.994900369 100.0
43.021160935 102.0
43.047421500 111.0
43.073682066 109.0
43.099942631 100.0
43.126203196 101.0
43.152463762 106.0
43.178724327 83.0
43.204984892 87.0
43.231245458 108.0
43.257506023 104.0
43.283766588 109.0
43.310027154 117.0
43.336287719 112.0
43.362548284 112.0
43.388808850 97.0
43.415069415 115.0
43.441329981 116.0
43.467590546 98.0
43.493851111 108.0
43.520111677 107.0
43.546372242 102.0
43.572632807 95.0
43.598893373 125.0
43.625153938 122.0
43.651414503 106.0
43.677675069 115.0
43.703935634 115.0
43.730196199 121.0
43.756456765 133.0
43.782717330 134.0
43.808977896 121.0
43.835238461 120.0
43.861499026 122.0
43.887759592 173.0
43.914020157 146.0
43.940280722 151.0
43.966541288 141.0
43.992801853 165.0
44.019062418 168.0
44.045322984 154.0
44.071583549 154.0
44.097844114 151.0
44.124104680 135.0
44.150365245 165.0
44.176625811 149.0
44.202886376 165.0
44.229146941 171.0
44.255407507 155.0
44.281668072 173.0
44.307928637 171.0
44.334189203 181.0
44.360449768 166.0
44.386710333 181.0
44.412970899 174.0
44.439231464 180.0
44.465492029 160.0
44.491752595 161.0
44.518013160 184.0
44.544273726 182.0
44.570534291 184.0
44.596794856 170.0
44.623055422 177.0
44.649315987 155.0
44.675576552 209.0
44.701837118 196.0
44.728097683 204.0
44.754358248 190.0
44.780618814 180.0
44.806879379 176.0
44.833139945 201.0
44.859400510 180.0
44.885661075 202.0
44.911921641 171.0
44.938182206 196.0
44.964442771 205.0
44.990703337 207.0
45.016963902 177.0
45.043224467 200.0
45.069485033 212.0
45.095745598 172.0
45.122006163 206.0
45.148266729 205.0
45.174527294 180.0
45.200787860 197.0
45.227048425 201.0
45.253308990 174.0
45.279569556 215.0
45.305830121 161.0
45.332090686 197.0
45.358351252 199.0
45.384611817 190.0
45.410872382 220.0
45.437132948 201.0
45.463393513 199.0
45.489654078 201.0
45.515914644 211.0
45.542175209 167.0
45.568435775 180.0
45.594696340 174.0
45.620956905 189.0
45.647217471 176.0
45.673478036 180.0
45.699738601 185.0
45.725999167 190.0
45.752259732 191.0
45.778520297 167.0
45.804780863 189.0
45.831041428 182.0
45.857301993 199.0
45.883562559 162.0
45.909823124 168.0
45.936083690 173.0
45.962344255 172.0
45.988604820 148.0
46.014865386 189.0
46.041125951 174.0
46.067386516 166.0
46.093647082 148.0
46.119907647 144.0
46.146168212 152.0
46.172428778 158.0
46.198689343 159.0
46.224949908 148.0
46.251210474 142.0
46.277471039 135.0
46.303731605 109.0
46.329992170 116.0
46.356252735 127.0
46.382513301 118.0
46.408773866 122.0
46.435034431 126.0
46.461294997 105.0
46.487555562 104.0
46.513816127 104.0
46.540076693 95.0
46.566337258 116.0
46.592597823 109.0
46.618858389 117.0
46.645118954 106.0
46.671379520 125.0
46.697640085 120.0
46.723900650 114.0
46.750161216 114.0
46.776421781 118.0
46.802682346 124.0
46.828942912 119.0
46.855203477 105.0
46.881464042 107.0
46.907724608 101.0
46.933985173 113.0
46.960245738 113.0
46.986506304 117.0
47.012766869 119.0
47.039027435 110.0
47.065288000 109.0
47.091548565 101.0
47.117809131 126.0
47.144069696 124.0
47.170330261 102.0
47.196590827 107.0
47.222851392 94.0
47.249111957 121.0
47.275372523 122.0
47.301633088 85.0
47.327893653 124.0
47.354154219 132.0
47.380414784 141.0
47.406675350 90.0
47.432935915 120.0
47.459196480 121.0
47.485457046 128.0
47.511717611 121.0
47.537978176 123.0
47.564238742 109.0
47.590499307 108.0
47.616759872 124.0
47.643020438 125.0
47.669281003 94.0
47.695541569 117.0
47.721802134 125.0
47.748062699 111.0
47.774323265 98.0
47.800583830 126.0
47.826844395 145.0
47.853104961 129.0
47.879365526 122.0
47.905626091 100.0
47.931886657 106.0
47.958147222 119.0
47.984407787 112.0
48.010668353 93.0
48.036928918 116.0
48.063189484 116.0
48.089450049 136.0
48.115710614 123.0
48.141971180 91.0
48.168231745 101.0
48.194492310 128.0
48.220752876 124.0
48.247013441 102.0
48.273274006 118.0
48.299534572 122.0
48.325795137 113.0
48.352055702 122.0
48.378316268 128.0
48.404576833 129.0
48.430837399 124.0
48.457097964 110.0
48.483358529 118.0
48.509619095 115.0
48.535879660 100.0
48.562140225 110.0
48.588400791 101.0
48.614661356 98.0
48.640921921 106.0
48.667182487 118.0
48.693443052 118.0
48.719703617 124.0
48.745964183 96.0
48.772224748 130.0
48.798485314 110.0
48.824745879 117.0
48.851006444 132.0
48.877267010 108.0
48.903527575 89.0
48.929788140 116.0
48.956048706 108.0
48.982309271 107.0
49.008569836 132.0
49.034830402 108.0
49.061090967 122.0
49.087351532 118.0
49.113612098 112.0
49.139872663 97.0
49.166133229 125.0
49.192393794 115.0
49.218654359 109.0
49.244914925 111.0
49.271175490 121.0
49.297436055 143.0
49.323696621 110.0
49.349957186 112.0
49.376217751 130.0
49.402478317 106.0
49.428738882 112.0
49.454999447 118.0
49.481260013 111.0
49.507520578 119.0
49.533781144 107.0
49.560041709 132.0
49.586302274 133.0
49.612562840 118.0
49.638823405 128.0
49.665083970 139.0
49.691344536 120.0
49.717605101 144.0
49.743865666 117.0
49.770126232 112.0
49.796386797 135.0
49.822647362 132.0
49.848907928 138.0
49.875168493 131.0
49.901429059 133.0
49.927689624 105.0
49.953950189 138.0
49.980210755 126.0
50.006471320 142.0
