10.011630280 367.0
10.037890845 383.0
10.064151411 335.0
10.090411976 357.0
10.116672541 357.0
10.142933107 396.0
10.169193672 382.0
10.195454238 350.0
10.221714803 394.0
10.247975368 369.0
10.274235934 365.0
10.300496499 402.0
10.326757064 359.0
10.353017630 420.0
10.379278195 347.0
10.405538760 332.0
10.431799326 389.0
10.458059891 405.0
10.484320456 397.0
10.510581022 387.0
10.536841587 359.0
10.563102153 356.0
10.589362718 345.0
10.615623283 347.0
10.641883849 394.0
10.668144414 371.0
10.694404979 368.0
10.720665545 400.0
10.746926110 342.0
10.773186675 399.0
10.799447241 387.0
10.825707806 362.0
10.851968371 363.0
10.878228937 343.0
10.904489502 367.0
10.930750068 370.0
10.957010633 317.0
10.983271198 349.0
11.009531764 372.0
11.035792329 321.0
11.062052894 348.0
11.088313460 355.0
11.114574025 317.0
11.140834590 357.0
11.167095156 354.0
11.193355721 335.0
11.219616286 365.0
11.245876852 364.0
11.272137417 349.0
11.298397983 329.0
11.324658548 340.0
11.350919113 351.0
11.377179679 354.0
11.403440244 348.0
11.429700809 335.0
11.455961375 377.0
11.482221940 362.0
11.508482505 344.0
11.534743071 337.0
11.561003636 317.0
11.587264201 347.0
11.613524767 337.0
11.639785332 320.0
11.666045898 349.0
11.692306463 369.0
11.718567028 301.0
11.744827594 323.0
11.771088159 310.0
11.797348724 327.0
11.823609290 346.0
11.849869855 324.0
11.876130420 303.0
11.902390986 339.0
11.928651551 335.0
11.954912116 321.0
11.981172682 317.0
12.007433247 337.0
12.033693813 371.0
12.059954378 329.0
12.086214943 324.0
12.112475509 352.0
12.138736074 333.0
12.164996639 357.0
12.191257205 342.0
12.217517770 354.0
12.243778335 339.0
12.270038901 347.0
12.296299466 362.0
12.322560031 314.0
12.348820597 332.0
12.375081162 370.0
12.401341728 331.0
12.427602293 339.0
12.453862858 303.0
12.480123424 339.0
12.506383989 359.0
12.532644554 325.0
12.558905120 326.0
12.585165685 327.0
12.611426250 348.0
12.637686816 332.0
12.663947381 314.0
12.690207947 346.0
12.716468512 352.0
12.742729077 346.0
12.768989643 326.0
12.795250208 347.0
12.821510773 315.0
12.847771339 327.0
12.874031904 337.0
12.900292469 328.0
12.926553035 333.0
12.952813600 327.0
12.979074165 306.0
13.005334731 359.0
13.031595296 323.0
13.057855862 333.0
13.084116427 319.0
13.110376992 333.0
13.136637558 327.0
13.162898123 318.0
13.189158688 307.0
13.215419254 315.0
13.241679819 293.0
13.267940384 306.0
13.294200950 344.0
13.320461515 304.0
13.346722080 305.0
13.372982646 299.0
13.399243211 300.0
13.425503777 314.0
13.451764342 318.0
13.478024907 335.0
13.504285473 284.0
13.530546038 282.0
13.556806603 314.0
13.583067169 306.0
13.609327734 324.0
13.635588299 295.0
13.661848865 300.0
13.688109430 296.0
13.714369995 285.0
13.740630561 304.0
13.766891126 302.0
13.793151692 316.0
13.819412257 277.0
13.845672822 284.0
13.871933388 273.0
13.898193953 314.0
13.924454518 260.0
13.950715084 305.0
13.976975649 311.0
14.003236214 306.0
14.029496780 267.0
14.055757345 259.0
14.082017910 299.0
14.108278476 263.0
14.134539041 295.0
14.160799607 273.0
14.187060172 314.0
14.213320737 308.0
14.239581303 272.0
14.265841868 294.0
14.292102433 285.0
14.318362999 301.0
14.344623564 311.0
14.370884129 282.0
14.397144695 319.0
14.423405260 296.0
14.449665825 279.0
14.475926391 305.0
14.502186956 304.0
14.528447522 318.0
14.554708087 280.0
14.580968652 307.0
14.607229218 269.0
14.633489783 297.0
14.659750348 312.0
14.686010914 339.0
14.712271479 295.0
14.738532044 359.0
14.764792610 324.0
14.791053175 311.0
14.817313740 332.0
14.843574306 344.0
14.869834871 390.0
14.896095437 399.0
14.922356002 374.0
14.948616567 429.0
14.974877133 436.0
15.001137698 467.0
15.027398263 464.0
15.053658829 521.0
15.079919394 502.0
15.106179959 533.0
15.132440525 556.0
15.158701090 586.0
15.184961655 624.0
15.211222221 613.0
15.237482786 671.0
15.263743352 661.0
15.290003917 695.0
15.316264482 706.0
15.342525048 711.0
15.368785613 712.0
15.395046178 702.0
15.421306744 679.0
15.447567309 721.0
15.473827874 739.0
15.500088440 736.0
15.526349005 716.0
15.552609571 680.0
15.578870136 732.0
15.605130701 714.0
15.631391267 755.0
15.657651832 706.0
15.683912397 697.0
15.710172963 705.0
15.736433528 694.0
15.762694093 702.0
15.788954659 654.0
15.815215224 668.0
15.841475789 697.0
15.867736355 686.0
15.893996920 597.0
15.920257486 576.0
15.946518051 549.0
15.972778616 552.0
15.999039182 525.0
16.025299747 415.0
16.051560312 406.0
16.077820878 388.0
16.104081443 359.0
16.130342008 288.0
16.156602574 301.0
16.182863139 287.0
16.209123704 317.0
16.235384270 312.0
16.261644835 235.0
16.287905401 283.0
16.314165966 299.0
16.340426531 294.0
16.366687097 301.0
16.392947662 306.0
16.419208227 309.0
16.445468793 237.0
16.471729358 279.0
16.497989923 259.0
16.524250489 266.0
16.550511054 277.0
16.576771619 265.0
16.603032185 264.0
16.629292750 238.0
16.655553316 249.0
16.681813881 278.0
16.708074446 275.0
16.734335012 289.0
16.760595577 266.0
16.786856142 267.0
16.813116708 273.0
16.839377273 245.0
16.865637838 263.0
16.891898404 266.0
16.918158969 272.0
16.944419534 270.0
16.970680100 294.0
16.996940665 277.0
17.023201231 226.0
17.049461796 261.0
17.075722361 243.0
17.101982927 291.0
17.128243492 244.0
17.154504057 283.0
17.180764623 261.0
17.207025188 250.0
17.233285753 268.0
17.259546319 275.0
17.285806884 283.0
17.312067449 281.0
17.338328015 259.0
17.364588580 218.0
17.390849146 264.0
17.417109711 249.0
17.443370276 278.0
17.469630842 271.0
17.495891407 254.0
17.522151972 262.0
17.548412538 265.0
17.574673103 262.0
17.600933668 276.0
17.627194234 268.0
17.653454799 273.0
17.679715364 274.0
17.705975930 281.0
17.732236495 262.0
17.758497061 254.0
17.784757626 259.0
17.811018191 269.0
17.837278757 249.0
17.863539322 288.0
17.889799887 232.0
17.916060453 291.0
17.942321018 286.0
17.968581583 269.0
17.994842149 291.0
18.021102714 253.0
18.047363280 299.0
18.073623845 285.0
18.099884410 261.0
18.126144976 255.0
18.152405541 282.0
18.178666106 286.0
18.204926672 289.0
18.231187237 278.0
18.257447802 278.0
18.283708368 286.0
18.309968933 256.0
18.336229498 281.0
18.362490064 263.0
18.388750629 279.0
18.415011195 250.0
18.441271760 247.0
18.467532325 280.0
18.493792891 282.0
18.520053456 298.0
18.546314021 302.0
18.572574587 311.0
18.598835152 254.0
18.625095717 302.0
18.651356283 287.0
18.677616848 278.0
18.703877413 278.0
18.730137979 297.0
18.756398544 279.0
18.782659110 308.0
18.808919675 290.0
18.835180240 251.0
18.861440806 277.0
18.887701371 294.0
18.913961936 300.0
18.940222502 273.0
18.966483067 286.0
18.992743632 282.0
19.019004198 306.0
19.045264763 297.0
19.071525328 297.0
19.097785894 279.0
19.124046459 317.0
19.150307025 280.0
19.176567590 302.0
19.202828155 271.0
19.229088721 286.0
19.255349286 312.0
19.281609851 292.0
19.307870417 307.0
19.334130982 291.0
19.360391547 320.0
19.386652113 288.0
19.412912678 328.0
19.439173243 284.0
19.465433809 272.0
19.491694374 330.0
19.517954940 284.0
19.544215505 294.0
19.570476070 290.0
19.596736636 321.0
19.622997201 287.0
19.649257766 293.0
19.675518332 288.0
19.701778897 294.0
19.728039462 310.0
19.754300028 299.0
19.780560593 290.0
19.806821158 310.0
19.833081724 319.0
19.859342289 280.0
19.885602855 287.0
19.911863420 320.0
19.938123985 299.0
19.964384551 297.0
19.990645116 298.0
20.016905681 323.0
20.043166247 325.0
20.069426812 316.0
20.095687377 319.0
20.121947943 304.0
20.148208508 338.0
20.174469073 326.0
20.200729639 301.0
20.226990204 336.0
20.253250770 310.0
20.279511335 316.0
20.305771900 312.0
20.332032466 304.0
20.358293031 301.0
20.384553596 342.0
20.410814162 306.0
20.437074727 302.0
20.463335292 312.0
20.489595858 350.0
20.515856423 302.0
20.542116988 290.0
20.568377554 301.0
20.594638119 324.0
20.620898685 300.0
20.647159250 320.0
20.673419815 315.0
20.699680381 308.0
20.725940946 322.0
20.752201511 313.0
20.778462077 317.0
20.804722642 311.0
20.830983207 337.0
20.857243773 333.0
20.883504338 314.0
20.909764904 318.0
20.936025469 335.0
20.962286034 329.0
20.988546600 359.0
21.014807165 320.0
21.041067730 349.0
21.067328296 356.0
21.093588861 335.0
21.119849426 332.0
21.146109992 331.0
21.172370557 350.0
21.198631122 400.0
21.224891688 385.0
21.251152253 446.0
21.277412819 414.0
21.303673384 423.0
21.329933949 434.0
21.356194515 449.0
21.382455080 431.0
21.408715645 418.0
21.434976211 535.0
21.461236776 486.0
21.487497341 523.0
21.513757907 547.0
21.540018472 569.0
21.566279037 504.0
21.592539603 540.0
21.618800168 557.0
21.645060734 585.0
21.671321299 603.0
21.697581864 622.0
21.723842430 563.0
21.750102995 666.0
21.776363560 613.0
21.802624126 628.0
21.828884691 624.0
21.855145256 612.0
21.881405822 597.0
21.907666387 631.0
21.933926952 597.0
21.960187518 661.0
21.986448083 631.0
22.012708649 632.0
22.038969214 654.0
22.065229779 630.0
22.091490345 648.0
22.117750910 651.0
22.144011475 667.0
22.170272041 625.0
22.196532606 649.0
22.222793171 634.0
22.249053737 625.0
22.275314302 627.0
22.301574867 592.0
22.327835433 618.0
22.354095998 610.0
22.380356564 597.0
22.406617129 633.0
22.432877694 594.0
22.459138260 550.0
22.485398825 571.0
22.511659390 584.0
22.537919956 586.0
22.564180521 552.0
22.590441086 500.0
22.616701652 497.0
22.642962217 491.0
22.669222782 469.0
22.695483348 428.0
22.721743913 447.0
22.748004479 382.0
22.774265044 372.0
22.800525609 348.0
22.826786175 314.0
22.853046740 340.0
22.879307305 297.0
22.905567871 316.0
22.931828436 291.0
22.958089001 287.0
22.984349567 284.0
23.010610132 283.0
23.036870697 293.0
23.063131263 277.0
23.089391828 247.0
23.115652394 275.0
23.141912959 255.0
23.168173524 258.0
23.194434090 291.0
23.220694655 277.0
23.246955220 283.0
23.273215786 262.0
23.299476351 274.0
23.325736916 254.0
23.351997482 240.0
23.378258047 272.0
23.404518613 275.0
23.430779178 244.0
23.457039743 241.0
23.483300309 240.0
23.509560874 261.0
23.535821439 255.0
23.562082005 275.0
23.588342570 266.0
23.614603135 261.0
23.640863701 254.0
23.667124266 266.0
23.693384831 267.0
23.719645397 271.0
23.745905962 279.0
23.772166528 250.0
23.798427093 251.0
23.824687658 264.0
23.850948224 234.0
23.877208789 231.0
23.903469354 238.0
23.929729920 220.0
23.955990485 266.0
23.982251050 265.0
24.008511616 251.0
24.034772181 223.0
24.061032746 278.0
24.087293312 257.0
24.113553877 246.0
24.139814443 259.0
24.166075008 216.0
24.192335573 251.0
24.218596139 231.0
24.244856704 245.0
24.271117269 252.0
24.297377835 229.0
24.323638400 247.0
24.349898965 231.0
24.376159531 240.0
24.402420096 256.0
24.428680661 273.0
24.454941227 249.0
24.481201792 245.0
24.507462358 230.0
24.533722923 255.0
24.559983488 238.0
24.586244054 241.0
24.612504619 256.0
24.638765184 235.0
24.665025750 250.0
24.691286315 272.0
24.717546880 255.0
24.743807446 235.0
24.770068011 229.0
24.796328576 238.0
24.822589142 244.0
24.848849707 289.0
24.875110273 243.0
24.901370838 242.0
24.927631403 244.0
24.953891969 209.0
24.980152534 255.0
25.006413099 252.0
25.032673665 227.0
25.058934230 273.0
25.085194795 263.0
25.111455361 248.0
25.137715926 264.0
25.163976491 261.0
25.190237057 238.0
25.216497622 250.0
25.242758188 266.0
25.269018753 266.0
25.295279318 254.0
25.321539884 235.0
25.347800449 247.0
25.374061014 243.0
25.400321580 219.0
25.426582145 240.0
25.452842710 223.0
25.479103276 248.0
25.505363841 266.0
25.531624406 226.0
25.557884972 226.0
25.584145537 203.0
25.610406103 215.0
25.636666668 243.0
25.662927233 238.0
25.689187799 205.0
25.715448364 210.0
25.741708929 212.0
25.767969495 185.0
25.794230060 239.0
25.820490625 228.0
25.846751191 212.0
25.873011756 223.0
25.899272321 243.0
25.925532887 203.0
25.951793452 209.0
25.978054018 206.0
26.004314583 235.0
26.030575148 199.0
26.056835714 224.0
26.083096279 195.0
26.109356844 216.0
26.135617410 194.0
26.161877975 195.0
26.188138540 201.0
26.214399106 216.0
26.240659671 210.0
26.266920237 225.0
26.293180802 221.0
26.319441367 175.0
26.345701933 199.0
26.371962498 180.0
26.398223063 186.0
26.424483629 193.0
26.450744194 207.0
26.477004759 220.0
26.503265325 232.0
26.529525890 208.0
26.555786455 191.0
26.582047021 181.0
26.608307586 200.0
26.634568152 206.0
26.660828717 201.0
26.687089282 191.0
26.713349848 221.0
26.739610413 219.0
26.765870978 204.0
26.792131544 205.0
26.818392109 193.0
26.844652674 191.0
26.870913240 181.0
26.897173805 173.0
26.923434370 162.0
26.949694936 196.0
26.975955501 178.0
27.002216067 175.0
27.028476632 205.0
27.054737197 193.0
27.080997763 196.0
27.107258328 199.0
27.133518893 172.0
27.159779459 193.0
27.186040024 209.0
27.212300589 218.0
27.238561155 200.0
27.264821720 197.0
27.291082285 188.0
27.317342851 198.0
27.343603416 188.0
27.369863982 167.0
27.396124547 191.0
27.422385112 184.0
27.448645678 172.0
27.474906243 189.0
27.501166808 167.0
27.527427374 204.0
27.553687939 190.0
27.579948504 182.0
27.606209070 185.0
27.632469635 198.0
27.658730200 159.0
27.684990766 175.0
27.711251331 208.0
27.737511897 175.0
27.763772462 197.0
27.790033027 191.0
27.816293593 198.0
27.842554158 175.0
27.868814723 199.0
27.895075289 185.0
27.921335854 182.0
27.947596419 199.0
27.973856985 185.0
28.000117550 187.0
28.026378115 192.0
28.052638681 175.0
28.078899246 211.0
28.105159812 182.0
28.131420377 165.0
28.157680942 177.0
28.183941508 186.0
28.210202073 197.0
28.236462638 207.0
28.262723204 174.0
28.288983769 199.0
28.315244334 193.0
28.341504900 192.0
28.367765465 175.0
28.394026030 212.0
28.420286596 196.0
28.446547161 160.0
28.472807727 189.0
28.499068292 188.0
28.525328857 193.0
28.551589423 182.0
28.577849988 191.0
28.604110553 192.0
28.630371119 211.0
28.656631684 189.0
28.682892249 193.0
28.709152815 185.0
28.735413380 193.0
28.761673946 168.0
28.787934511 202.0
28.814195076 179.0
28.840455642 166.0
28.866716207 181.0
28.892976772 192.0
28.919237338 195.0
28.945497903 182.0
28.971758468 194.0
28.998019034 183.0
29.024279599 182.0
29.050540164 199.0
29.076800730 195.0
29.103061295 154.0
29.129321861 194.0
29.155582426 174.0
29.181842991 175.0
29.208103557 190.0
29.234364122 205.0
29.260624687 179.0
29.286885253 161.0
29.313145818 170.0
29.339406383 200.0
29.365666949 204.0
29.391927514 192.0
29.418188079 185.0
29.444448645 191.0
29.470709210 209.0
29.496969776 180.0
29.523230341 185.0
29.549490906 202.0
29.575751472 217.0
29.602012037 188.0
29.628272602 193.0
29.654533168 185.0
29.680793733 214.0
29.707054298 208.0
29.733314864 197.0
29.759575429 192.0
29.785835994 190.0
29.812096560 195.0
29.838357125 181.0
29.864617691 212.0
29.890878256 225.0
29.917138821 189.0
29.943399387 220.0
29.969659952 222.0
29.995920517 226.0
30.022181083 231.0
30.048441648 253.0
30.074702213 271.0
30.100962779 240.0
30.127223344 230.0
30.153483909 306.0
30.179744475 308.0
30.206005040 338.0
30.232265606 352.0
30.258526171 343.0
30.284786736 353.0
30.311047302 351.0
30.337307867 359.0
30.363568432 362.0
30.389828998 390.0
30.416089563 429.0
30.442350128 404.0
30.468610694 421.0
30.494871259 446.0
30.521131824 498.0
30.547392390 477.0
30.573652955 487.0
30.599913521 522.0
30.626174086 545.0
30.652434651 523.0
30.678695217 602.0
30.704955782 571.0
30.731216347 652.0
30.757476913 655.0
30.783737478 661.0
30.809998043 637.0
30.836258609 656.0
30.862519174 709.0
30.888779739 727.0
30.915040305 728.0
30.941300870 700.0
30.967561436 686.0
30.993822001 726.0
31.020082566 736.0
31.046343132 774.0
31.072603697 752.0
31.098864262 703.0
31.125124828 760.0
31.151385393 693.0
31.177645958 740.0
31.203906524 727.0
31.230167089 782.0
31.256427654 699.0
31.282688220 837.0
31.308948785 750.0
31.335209351 728.0
31.361469916 721.0
31.387730481 779.0
31.413991047 727.0
31.440251612 763.0
31.466512177 794.0
31.492772743 758.0
31.519033308 783.0
31.545293873 765.0
31.571554439 814.0
31.597815004 809.0
31.624075570 755.0
31.650336135 778.0
31.676596700 788.0
31.702857266 828.0
31.729117831 768.0
31.755378396 791.0
31.781638962 759.0
31.807899527 704.0
31.834160092 778.0
31.860420658 773.0
31.886681223 715.0
31.912941788 736.0
31.939202354 708.0
31.965462919 727.0
31.991723485 698.0
32.017984050 734.0
32.044244615 700.0
32.070505181 655.0
32.096765746 644.0
32.123026311 665.0
32.149286877 623.0
32.175547442 629.0
32.201808007 586.0
32.228068573 585.0
32.254329138 513.0
32.280589703 503.0
32.306850269 509.0
32.333110834 436.0
32.359371400 399.0
32.385631965 354.0
32.411892530 338.0
32.438153096 261.0
32.464413661 279.0
32.490674226 262.0
32.516934792 226.0
32.543195357 231.0
32.569455922 204.0
32.595716488 197.0
32.621977053 181.0
32.648237618 159.0
32.674498184 177.0
32.700758749 169.0
32.727019315 186.0
32.753279880 143.0
32.779540445 166.0
32.805801011 136.0
32.832061576 150.0
32.858322141 163.0
32.884582707 147.0
32.910843272 139.0
32.937103837 156.0
32.963364403 163.0
32.989624968 139.0
33.015885533 160.0
33.042146099 137.0
33.068406664 147.0
33.094667230 182.0
33.120927795 176.0
33.147188360 158.0
33.173448926 169.0
33.199709491 144.0
33.225970056 158.0
33.252230622 145.0
33.278491187 168.0
33.304751752 160.0
33.331012318 132.0
33.357272883 152.0
33.383533448 156.0
33.409794014 133.0
33.436054579 136.0
33.462315145 137.0
33.488575710 146.0
33.514836275 129.0
33.541096841 122.0
33.567357406 171.0
33.593617971 141.0
33.619878537 132.0
33.646139102 145.0
33.672399667 154.0
33.698660233 166.0
33.724920798 121.0
33.751181363 158.0
33.777441929 130.0
33.803702494 169.0
33.829963060 167.0
33.856223625 129.0
33.882484190 140.0
33.908744756 154.0
33.935005321 160.0
33.961265886 158.0
33.987526452 152.0
34.013787017 146.0
34.040047582 158.0
34.066308148 179.0
34.092568713 179.0
34.118829279 175.0
34.145089844 154.0
34.171350409 157.0
34.197610975 167.0
34.223871540 155.0
34.250132105 168.0
34.276392671 173.0
34.302653236 166.0
34.328913801 162.0
34.355174367 165.0
34.381434932 191.0
34.407695497 176.0
34.433956063 201.0
34.460216628 203.0
34.486477194 184.0
34.512737759 179.0
34.538998324 192.0
34.565258890 216.0
34.591519455 183.0
34.617780020 195.0
34.644040586 175.0
34.670301151 182.0
34.696561716 219.0
34.722822282 208.0
34.749082847 195.0
34.775343412 205.0
34.801603978 192.0
34.827864543 190.0
34.854125109 206.0
34.880385674 200.0
34.906646239 183.0
34.932906805 195.0
34.959167370 202.0
34.985427935 184.0
35.011688501 220.0
35.037949066 203.0
35.064209631 179.0
35.090470197 212.0
35.116730762 192.0
35.142991327 180.0
35.169251893 193.0
35.195512458 197.0
35.221773024 195.0
35.248033589 212.0
35.274294154 195.0
35.300554720 215.0
35.326815285 213.0
35.353075850 213.0
35.379336416 212.0
35.405596981 198.0
35.431857546 189.0
35.458118112 203.0
35.484378677 218.0
35.510639242 188.0
35.536899808 212.0
35.563160373 181.0
35.589420939 190.0
35.615681504 221.0
35.641942069 203.0
35.668202635 192.0
35.694463200 189.0
35.720723765 168.0
35.746984331 180.0
35.773244896 197.0
35.799505461 182.0
35.825766027 189.0
35.852026592 167.0
35.878287157 172.0
35.904547723 204.0
35.930808288 188.0
35.957068854 174.0
35.983329419 205.0
36.009589984 175.0
36.035850550 187.0
36.062111115 204.0
36.088371680 169.0
36.114632246 168.0
36.140892811 155.0
36.167153376 159.0
36.193413942 164.0
36.219674507 152.0
36.245935072 153.0
36.272195638 133.0
36.298456203 143.0
36.324716769 122.0
36.350977334 117.0
36.377237899 122.0
36.403498465 124.0
36.429759030 139.0
36.456019595 121.0
36.482280161 148.0
36.508540726 117.0
36.534801291 131.0
36.561061857 136.0
36.587322422 114.0
36.613582987 120.0
36.639843553 141.0
36.666104118 110.0
36.692364684 113.0
36.718625249 117.0
36.744885814 134.0
36.771146380 126.0
36.797406945 108.0
36.823667510 131.0
36.849928076 129.0
36.876188641 113.0
36.902449206 128.0
36.928709772 139.0
36.954970337 121.0
36.981230903 121.0
37.007491468 113.0
37.033752033 120.0
37.060012599 138.0
37.086273164 116.0
37.112533729 133.0
37.138794295 124.0
37.165054860 112.0
37.191315425 149.0
37.217575991 140.0
37.243836556 156.0
37.270097121 140.0
37.296357687 136.0
37.322618252 145.0
37.348878818 173.0
37.375139383 181.0
37.401399948 161.0
37.427660514 166.0
37.453921079 162.0
37.480181644 164.0
37.506442210 180.0
37.532702775 170.0
37.558963340 211.0
37.585223906 178.0
37.611484471 192.0
37.637745036 188.0
37.664005602 192.0
37.690266167 190.0
37.716526733 204.0
37.742787298 188.0
37.769047863 207.0
37.795308429 205.0
37.821568994 218.0
37.847829559 209.0
37.874090125 223.0
37.900350690 205.0
37.926611255 213.0
37.952871821 230.0
37.979132386 243.0
38.005392951 240.0
38.031653517 209.0
38.057914082 221.0
38.084174648 244.0
38.110435213 234.0
38.136695778 251.0
38.162956344 236.0
38.189216909 245.0
38.215477474 279.0
38.241738040 278.0
38.267998605 283.0
38.294259170 271.0
38.320519736 270.0
38.346780301 247.0
38.373040866 239.0
38.399301432 259.0
38.425561997 263.0
38.451822563 240.0
38.478083128 248.0
38.504343693 261.0
38.530604259 264.0
38.556864824 277.0
38.583125389 278.0
38.609385955 252.0
38.635646520 281.0
38.661907085 288.0
38.688167651 246.0
38.714428216 292.0
38.740688781 263.0
38.766949347 282.0
38.793209912 287.0
38.819470478 270.0
38.845731043 246.0
38.871991608 263.0
38.898252174 239.0
38.924512739 280.0
38.950773304 257.0
38.977033870 270.0
39.003294435 250.0
39.029555000 246.0
39.055815566 300.0
39.082076131 266.0
39.108336696 242.0
39.134597262 235.0
39.160857827 268.0
39.187118393 255.0
39.213378958 233.0
39.239639523 258.0
39.265900089 262.0
39.292160654 262.0
39.318421219 279.0
39.344681785 245.0
39.370942350 264.0
39.397202915 260.0
39.423463481 246.0
39.449724046 259.0
39.475984612 230.0
39.502245177 229.0
39.528505742 222.0
39.554766308 226.0
39.581026873 194.0
39.607287438 206.0
39.633548004 200.0
39.659808569 205.0
39.686069134 177.0
39.712329700 207.0
39.738590265 191.0
39.764850830 189.0
39.791111396 192.0
39.817371961 177.0
39.843632527 165.0
39.869893092 127.0
39.896153657 144.0
39.922414223 153.0
39.948674788 136.0
39.974935353 132.0
40.001195919 134.0
40.027456484 120.0
40.053717049 109.0
40.079977615 111.0
40.106238180 119.0
40.132498745 103.0
40.158759311 117.0
40.185019876 115.0
40.211280442 108.0
40.237541007 117.0
40.263801572 101.0
40.290062138 101.0
40.316322703 114.0
40.342583268 107.0
40.368843834 89.0
40.395104399 104.0
40.421364964 123.0
40.447625530 101.0
40.473886095 115.0
40.500146660 107.0
40.526407226 97.0
40.552667791 111.0
40.578928357 120.0
40.605188922 91.0
40.631449487 100.0
40.657710053 127.0
40.683970618 101.0
40.710231183 110.0
40.736491749 104.0
40.762752314 108.0
40.789012879 88.0
40.815273445 103.0
40.841534010 92.0
40.867794575 113.0
40.894055141 112.0
40.920315706 109.0
40.946576272 83.0
40.972836837 99.0
40.999097402 92.0
41.025357968 103.0
41.051618533 89.0
41.077879098 103.0
41.104139664 117.0
41.130400229 93.0
41.156660794 93.0
41.182921360 115.0
41.209181925 112.0
41.235442490 95.0
41.261703056 116.0
41.287963621 115.0
41.314224187 100.0
41.340484752 82.0
41.366745317 89.0
41.393005883 107.0
41.419266448 98.0
41.445527013 90.0
41.471787579 84.0
41.498048144 88.0
41.524308709 110.0
41.550569275 89.0
41.576829840 121.0
41.603090405 96.0
41.629350971 83.0
41.655611536 113.0
41.681872102 102.0
41.708132667 97.0
41.734393232 112.0
41.760653798 102.0
41.786914363 93.0
41.813174928 99.0
41.839435494 100.0
41.865696059 104.0
41.891956624 109.0
41.918217190 99.0
41.944477755 93.0
41.970738320 90.0
41.996998886 77.0
42.023259451 116.0
42.049520017 85.0
42.075780582 86.0
42.102041147 125.0
42.128301713 97.0
42.154562278 76.0
42.180822843 106.0
42.207083409 97.0
42.233343974 96.0
42.259604539 92.0
42.285865105 104.0
42.312125670 113.0
42.338386236 82.0
42.364646801 92.0
42.390907366 98.0
42.417167932 104.0
42.443428497 93.0
42.469689062 99.0
42.495949628 100.0
42.522210193 91.0
42.548470758 93.0
42.574731324 105.0
42.600991889 91.0
42.627252454 91.0
42.653513020 83.0
42.679773585 84.0
42.706034151 100.0
42.732294716 102.0
42.758555281 95.0
42.784815847 87.0
42.811076412 97.0
42.837336977 116.0
42.863597543 92.0
42.889858108 87.0
42.916118673 106.0
42.942379239 95.0
42.968639804 98.0
42.994900369 101.0
43.021160935 111.0
43.047421500 108.0
43.073682066 81.0
43.099942631 99.0
43.126203196 109.0
43.152463762 89.0
43.178724327 112.0
43.204984892 105.0
43.231245458 108.0
43.257506023 92.0
43.283766588 118.0
43.310027154 108.0
43.336287719 102.0
43.362548284 105.0
43.388808850 114.0
43.415069415 118.0
43.441329981 117.0
43.467590546 126.0
43.493851111 109.0
43.520111677 119.0
43.546372242 127.0
43.572632807 125.0
43.598893373 110.0
43.625153938 108.0
43.651414503 119.0
43.677675069 124.0
43.703935634 113.0
43.730196199 148.0
43.756456765 126.0
43.782717330 123.0
43.808977896 161.0
43.835238461 120.0
43.861499026 134.0
43.887759592 129.0
43.914020157 135.0
43.940280722 141.0
43.966541288 144.0
43.992801853 139.0
44.019062418 149.0
44.045322984 139.0
44.071583549 135.0
44.097844114 155.0
44.124104680 158.0
44.150365245 179.0
44.176625811 166.0
44.202886376 152.0
44.229146941 162.0
44.255407507 185.0
44.281668072 160.0
44.307928637 154.0
44.334189203 157.0
44.360449768 156.0
44.386710333 153.0
44.412970899 164.0
44.439231464 140.0
44.465492029 156.0
44.491752595 170.0
44.518013160 125.0
44.544273726 181.0
44.570534291 150.0
44.596794856 166.0
44.623055422 155.0
44.649315987 187.0
44.675576552 175.0
44.701837118 183.0
44.728097683 176.0
44.754358248 170.0
44.780618814 161.0
44.806879379 158.0
44.833139945 183.0
44.859400510 202.0
44.885661075 159.0
44.911921641 174.0
44.938182206 192.0
44.964442771 177.0
44.990703337 179.0
45.016963902 185.0
45.043224467 182.0
45.069485033 161.0
45.095745598 183.0
45.122006163 193.0
45.148266729 165.0
45.174527294 171.0
45.200787860 197.0
45.227048425 186.0
45.253308990 184.0
45.279569556 175.0
45.305830121 186.0
45.332090686 187.0
45.358351252 161.0
45.384611817 170.0
45.410872382 173.0
45.437132948 155.0
45.463393513 173.0
45.489654078 145.0
45.515914644 168.0
45.542175209 188.0
45.568435775 179.0
45.594696340 162.0
45.620956905 186.0
45.647217471 137.0
45.673478036 169.0
45.699738601 146.0
45.725999167 148.0
45.752259732 168.0
45.778520297 188.0
45.804780863 173.0
45.831041428 158.0
45.857301993 148.0
45.883562559 144.0
45.909823124 161.0
45.936083690 149.0
45.962344255 148.0
45.988604820 157.0
46.014865386 172.0
46.041125951 152.0
46.067386516 160.0
46.093647082 158.0
46.119907647 149.0
46.146168212 158.0
46.172428778 134.0
46.198689343 145.0
46.224949908 133.0
46.251210474 135.0
46.277471039 109.0
46.303731605 145.0
46.329992170 131.0
46.356252735 127.0
46.382513301 104.0
46.408773866 123.0
46.435034431 113.0
46.461294997 106.0
46.487555562 129.0
46.513816127 96.0
46.540076693 115.0
46.566337258 124.0
46.592597823 115.0
46.618858389 106.0
46.645118954 107.0
46.671379520 110.0
46.697640085 119.0
46.723900650 85.0
46.750161216 108.0
46.776421781 108.0
46.802682346 116.0
46.828942912 121.0
46.855203477 114.0
46.881464042 121.0
46.907724608 92.0
46.933985173 93.0
46.960245738 117.0
46.986506304 104.0
47.012766869 112.0
47.039027435 117.0
47.065288000 104.0
47.091548565 126.0
47.117809131 101.0
47.144069696 117.0
47.170330261 117.0
47.196590827 120.0
47.222851392 99.0
47.249111957 137.0
47.275372523 99.0
47.301633088 138.0
47.327893653 106.0
47.354154219 99.0
47.380414784 130.0
47.406675350 112.0
47.432935915 118.0
47.459196480 119.0
47.485457046 115.0
47.511717611 116.0
47.537978176 115.0
47.564238742 131.0
47.590499307 130.0
47.616759872 121.0
47.643020438 119.0
47.669281003 101.0
47.695541569 109.0
47.721802134 121.0
47.748062699 121.0
47.774323265 118.0
47.800583830 101.0
47.826844395 119.0
47.853104961 122.0
47.879365526 128.0
47.905626091 104.0
47.931886657 106.0
47.958147222 112.0
47.984407787 129.0
48.010668353 112.0
48.036928918 112.0
48.063189484 117.0
48.089450049 137.0
48.115710614 127.0
48.141971180 96.0
48.168231745 120.0
48.194492310 99.0
48.220752876 115.0
48.247013441 124.0
48.273274006 117.0
48.299534572 106.0
48.325795137 126.0
48.352055702 118.0
48.378316268 113.0
48.404576833 123.0
48.430837399 112.0
48.457097964 110.0
48.483358529 116.0
48.509619095 113.0
48.535879660 102.0
48.562140225 100.0
48.588400791 105.0
48.614661356 99.0
48.640921921 117.0
48.667182487 126.0
48.693443052 107.0
48.719703617 131.0
48.745964183 125.0
48.772224748 99.0
48.798485314 125.0
48.824745879 119.0
48.851006444 134.0
48.877267010 112.0
48.903527575 131.0
48.929788140 104.0
48.956048706 127.0
48.982309271 101.0
49.008569836 121.0
49.034830402 127.0
49.061090967 122.0
49.087351532 124.0
49.113612098 128.0
49.139872663 114.0
49.166133229 127.0
49.192393794 116.0
49.218654359 120.0
49.244914925 126.0
49.271175490 125.0
49.297436055 119.0
49.323696621 127.0
49.349957186 110.0
49.376217751 128.0
49.402478317 134.0
49.428738882 105.0
49.454999447 114.0
49.481260013 127.0
49.507520578 126.0
49.533781144 115.0
49.560041709 123.0
49.586302274 130.0
49.612562840 137.0
49.638823405 137.0
49.665083970 133.0
49.691344536 156.0
49.717605101 119.0
49.743865666 152.0
49.770126232 122.0
49.796386797 102.0
49.822647362 114.0
49.848907928 144.0
49.875168493 144.0
49.901429059 133.0
49.927689624 148.0
49.953950189 124.0
49.980210755 144.0
50.006471320 115.0
