10.011630280 371.0
10.037890845 379.0
10.064151411 372.0
10.090411976 430.0
10.116672541 362.0
10.142933107 384.0
10.169193672 370.0
10.195454238 358.0
10.221714803 355.0
10.247975368 378.0
10.274235934 364.0
10.300496499 359.0
10.326757064 382.0
10.353017630 386.0
10.379278195 369.0
10.405538760 377.0
10.431799326 322.0
10.458059891 393.0
10.484320456 364.0
10.510581022 376.0
10.536841587 361.0
10.563102153 366.0
10.589362718 380.0
10.615623283 364.0
10.641883849 341.0
10.668144414 383.0
10.694404979 369.0
10.720665545 370.0
10.746926110 349.0
10.773186675 358.0
10.799447241 351.0
10.825707806 340.0
10.851968371 367.0
10.878228937 352.0
10.904489502 373.0
10.930750068 350.0
10.957010633 382.0
10.983271198 338.0
11.009531764 383.0
11.035792329 365.0
11.062052894 362.0
11.088313460 328.0
11.114574025 355.0
11.140834590 346.0
11.167095156 361.0
11.193355721 350.0
11.219616286 365.0
11.245876852 360.0
11.272137417 348.0
11.298397983 342.0
11.324658548 347.0
11.350919113 351.0
11.377179679 332.0
11.403440244 331.0
11.429700809 341.0
11.455961375 340.0
11.482221940 334.0
11.508482505 322.0
11.534743071 317.0
11.561003636 359.0
11.587264201 334.0
11.613524767 335.0
11.639785332 313.0
11.666045898 298.0
11.692306463 329.0
11.718567028 359.0
11.744827594 344.0
11.771088159 370.0
11.797348724 347.0
11.823609290 356.0
11.849869855 314.0
11.876130420 326.0
11.902390986 314.0
11.928651551 329.0
11.954912116 324.0
11.981172682 346.0
12.007433247 330.0
12.033693813 306.0
12.059954378 321.0
12.086214943 301.0
12.112475509 314.0
12.138736074 319.0
12.164996639 357.0
12.191257205 304.0
12.217517770 354.0
12.243778335 347.0
12.270038901 344.0
12.296299466 320.0
12.322560031 342.0
12.348820597 342.0
12.375081162 298.0
12.401341728 342.0
12.427602293 345.0
12.453862858 337.0
12.480123424 340.0
12.506383989 365.0
12.532644554 362.0
12.558905120 356.0
12.585165685 338.0
12.611426250 321.0
12.637686816 343.0
12.663947381 337.0
12.690207947 321.0
12.716468512 349.0
12.742729077 321.0
12.768989643 339.0
12.795250208 366.0
12.821510773 342.0
12.847771339 338.0
12.874031904 357.0
12.900292469 322.0
12.926553035 347.0
12.952813600 336.0
12.979074165 351.0
13.005334731 332.0
13.031595296 341.0
13.057855862 331.0
13.084116427 337.0
13.110376992 330.0
13.136637558 319.0
13.162898123 314.0
13.189158688 309.0
13.215419254 281.0
13.241679819 295.0
13.267940384 293.0
13.294200950 316.0
13.320461515 320.0
13.346722080 291.0
13.372982646 258.0
13.399243211 305.0
13.425503777 307.0
13.451764342 339.0
13.478024907 269.0
13.504285473 295.0
13.530546038 295.0
13.556806603 308.0
13.583067169 303.0
13.609327734 303.0
13.635588299 244.0
13.661848865 271.0
13.688109430 291.0
13.714369995 288.0
13.740630561 269.0
13.766891126 271.0
13.793151692 290.0
13.819412257 299.0
13.845672822 290.0
13.871933388 259.0
13.898193953 273.0
13.924454518 295.0
13.950715084 288.0
13.976975649 271.0
14.003236214 292.0
14.029496780 311.0
14.055757345 284.0
14.082017910 302.0
14.108278476 268.0
14.134539041 275.0
14.160799607 303.0
14.187060172 306.0
14.213320737 303.0
14.239581303 285.0
14.265841868 301.0
14.292102433 265.0
14.318362999 269.0
14.344623564 308.0
14.370884129 290.0
14.397144695 324.0
14.423405260 281.0
14.449665825 292.0
14.475926391 286.0
14.502186956 318.0
14.528447522 280.0
14.554708087 313.0
14.580968652 313.0
14.607229218 305.0
14.633489783 327.0
14.659750348 307.0
14.686010914 333.0
14.712271479 321.0
14.738532044 341.0
14.764792610 283.0
14.791053175 275.0
14.817313740 324.0
14.843574306 355.0
14.869834871 344.0
14.896095437 390.0
14.922356002 387.0
14.948616567 396.0
14.974877133 414.0
15.001137698 426.0
15.027398263 450.0
15.053658829 446.0
15.079919394 494.0
15.106179959 522.0
15.132440525 485.0
15.158701090 541.0
15.184961655 562.0
15.211222221 570.0
15.237482786 564.0
15.263743352 560.0
15.290003917 580.0
15.316264482 595.0
15.342525048 566.0
15.368785613 601.0
15.395046178 619.0
15.421306744 590.0
15.447567309 589.0
15.473827874 603.0
15.500088440 600.0
15.526349005 567.0
15.552609571 610.0
15.578870136 575.0
15.605130701 576.0
15.631391267 600.0
15.657651832 603.0
15.683912397 549.0
15.710172963 545.0
15.736433528 566.0
15.762694093 525.0
15.788954659 496.0
15.815215224 489.0
15.841475789 505.0
15.867736355 470.0
15.893996920 424.0
15.920257486 388.0
15.946518051 368.0
15.972778616 356.0
15.999039182 312.0
16.025299747 300.0
16.051560312 306.0
16.077820878 257.0
16.104081443 264.0
16.130342008 251.0
16.156602574 271.0
16.182863139 273.0
16.209123704 258.0
16.235384270 263.0
16.261644835 280.0
16.287905401 244.0
16.314165966 247.0
16.340426531 281.0
16.366687097 277.0
16.392947662 250.0
16.419208227 276.0
16.445468793 275.0
16.471729358 251.0
16.497989923 237.0
16.524250489 266.0
16.550511054 276.0
16.576771619 263.0
16.603032185 248.0
16.629292750 245.0
16.655553316 264.0
16.681813881 265.0
16.708074446 254.0
16.734335012 261.0
16.760595577 262.0
16.786856142 299.0
16.813116708 293.0
16.839377273 245.0
16.865637838 278.0
16.891898404 274.0
16.918158969 258.0
16.944419534 261.0
16.970680100 282.0
16.996940665 256.0
17.023201231 276.0
17.049461796 263.0
17.075722361 257.0
17.101982927 309.0
17.128243492 259.0
17.154504057 306.0
17.180764623 275.0
17.207025188 256.0
17.233285753 266.0
17.259546319 243.0
17.285806884 284.0
17.312067449 294.0
17.338328015 294.0
17.364588580 266.0
17.390849146 237.0
17.417109711 265.0
17.443370276 279.0
17.469630842 279.0
17.495891407 283.0
17.522151972 285.0
17.548412538 259.0
17.574673103 273.0
17.600933668 277.0
17.627194234 254.0
17.653454799 284.0
17.679715364 273.0
17.705975930 285.0
17.732236495 292.0
17.758497061 271.0
17.784757626 275.0
17.811018191 240.0
17.837278757 298.0
17.863539322 296.0
17.889799887 284.0
17.916060453 270.0
17.942321018 231.0
17.968581583 269.0
17.994842149 293.0
18.021102714 298.0
18.047363280 292.0
18.073623845 266.0
18.099884410 275.0
18.126144976 279.0
18.152405541 283.0
18.178666106 250.0
18.204926672 279.0
18.231187237 294.0
18.257447802 285.0
18.283708368 264.0
18.309968933 270.0
18.336229498 255.0
18.362490064 263.0
18.388750629 304.0
18.415011195 258.0
18.441271760 298.0
18.467532325 279.0
18.493792891 268.0
18.520053456 283.0
18.546314021 257.0
18.572574587 291.0
18.598835152 287.0
18.625095717 286.0
18.651356283 257.0
18.677616848 309.0
18.703877413 288.0
18.730137979 293.0
18.756398544 320.0
18.782659110 277.0
18.808919675 298.0
18.835180240 249.0
18.861440806 275.0
18.887701371 280.0
18.913961936 272.0
18.940222502 295.0
18.966483067 324.0
18.992743632 254.0
19.019004198 291.0
19.045264763 276.0
19.071525328 267.0
19.097785894 278.0
19.124046459 302.0
19.150307025 267.0
19.176567590 316.0
19.202828155 271.0
19.229088721 286.0
19.255349286 298.0
19.281609851 269.0
19.307870417 320.0
19.334130982 272.0
19.360391547 299.0
19.386652113 301.0
19.412912678 278.0
19.439173243 270.0
19.465433809 276.0
19.491694374 271.0
19.517954940 271.0
19.544215505 301.0
19.570476070 291.0
19.596736636 275.0
19.622997201 331.0
19.649257766 296.0
19.675518332 314.0
19.701778897 271.0
19.728039462 309.0
19.754300028 287.0
19.780560593 313.0
19.806821158 280.0
19.833081724 313.0
19.859342289 322.0
19.885602855 321.0
19.911863420 291.0
19.938123985 307.0
19.964384551 324.0
19.990645116 306.0
20.016905681 304.0
20.043166247 278.0
20.069426812 275.0
20.095687377 282.0
20.121947943 321.0
20.148208508 276.0
20.174469073 326.0
20.200729639 313.0
20.226990204 308.0
20.253250770 335.0
20.279511335 306.0
20.305771900 284.0
20.332032466 314.0
20.358293031 302.0
20.384553596 298.0
20.410814162 316.0
20.437074727 359.0
20.463335292 322.0
20.489595858 342.0
20.515856423 311.0
20.542116988 311.0
20.568377554 324.0
20.594638119 300.0
20.620898685 334.0
20.647159250 343.0
20.673419815 298.0
20.699680381 319.0
20.725940946 321.0
20.752201511 292.0
20.778462077 336.0
20.804722642 362.0
20.830983207 328.0
20.857243773 317.0
20.883504338 376.0
20.909764904 343.0
20.936025469 365.0
20.962286034 377.0
20.988546600 370.0
21.014807165 400.0
21.041067730 410.0
21.067328296 443.0
21.093588861 473.0
21.119849426 437.0
21.146109992 537.0
21.172370557 580.0
21.198631122 575.0
21.224891688 623.0
21.251152253 627.0
21.277412819 616.0
21.303673384 643.0
21.329933949 665.0
21.356194515 737.0
21.382455080 738.0
21.408715645 751.0
21.434976211 771.0
21.461236776 817.0
21.487497341 806.0
21.513757907 850.0
21.540018472 919.0
21.566279037 874.0
21.592539603 885.0
21.618800168 919.0
21.645060734 963.0
21.671321299 999.0
21.697581864 962.0
21.723842430 982.0
21.750102995 927.0
21.776363560 1010.0
21.802624126 980.0
21.828884691 982.0
21.855145256 989.0
21.881405822 1012.0
21.907666387 1002.0
21.933926952 1014.0
21.960187518 1027.0
21.986448083 967.0
22.012708649 986.0
22.038969214 976.0
22.065229779 953.0
22.091490345 999.0
22.117750910 1009.0
22.144011475 1050.0
22.170272041 944.0
22.196532606 919.0
22.222793171 955.0
22.249053737 948.0
22.275314302 922.0
22.301574867 916.0
22.327835433 901.0
22.354095998 932.0
22.380356564 847.0
22.406617129 829.0
22.432877694 895.0
22.459138260 785.0
22.485398825 700.0
22.511659390 696.0
22.537919956 642.0
22.564180521 611.0
22.590441086 514.0
22.616701652 481.0
22.642962217 472.0
22.669222782 421.0
22.695483348 371.0
22.721743913 371.0
22.748004479 353.0
22.774265044 376.0
22.800525609 332.0
22.826786175 338.0
22.853046740 314.0
22.879307305 295.0
22.905567871 315.0
22.931828436 272.0
22.958089001 277.0
22.984349567 283.0
23.010610132 298.0
23.036870697 275.0
23.063131263 325.0
23.089391828 301.0
23.115652394 275.0
23.141912959 311.0
23.168173524 276.0
23.194434090 278.0
23.220694655 296.0
23.246955220 257.0
23.273215786 263.0
23.299476351 276.0
23.325736916 260.0
23.351997482 295.0
23.378258047 263.0
23.404518613 276.0
23.430779178 255.0
23.457039743 253.0
23.483300309 274.0
23.509560874 294.0
23.535821439 277.0
23.562082005 241.0
23.588342570 266.0
23.614603135 291.0
23.640863701 252.0
23.667124266 258.0
23.693384831 247.0
23.719645397 259.0
23.745905962 271.0
23.772166528 301.0
23.798427093 275.0
23.824687658 250.0
23.850948224 259.0
23.877208789 259.0
23.903469354 241.0
23.929729920 267.0
23.955990485 283.0
23.982251050 261.0
24.008511616 244.0
24.034772181 258.0
24.061032746 293.0
24.087293312 289.0
24.113553877 249.0
24.139814443 284.0
24.166075008 238.0
24.192335573 279.0
24.218596139 232.0
24.244856704 242.0
24.271117269 237.0
24.297377835 242.0
24.323638400 267.0
24.349898965 249.0
24.376159531 253.0
24.402420096 233.0
24.428680661 223.0
24.454941227 269.0
24.481201792 250.0
24.507462358 239.0
24.533722923 269.0
24.559983488 255.0
24.586244054 237.0
24.612504619 257.0
24.638765184 266.0
24.665025750 244.0
24.691286315 263.0
24.717546880 260.0
24.743807446 225.0
24.770068011 236.0
24.796328576 252.0
24.822589142 246.0
24.848849707 299.0
24.875110273 239.0
24.901370838 265.0
24.927631403 242.0
24.953891969 267.0
24.980152534 234.0
25.006413099 264.0
25.032673665 266.0
25.058934230 260.0
25.085194795 270.0
25.111455361 232.0
25.137715926 251.0
25.163976491 231.0
25.190237057 262.0
25.216497622 233.0
25.242758188 214.0
25.269018753 250.0
25.295279318 230.0
25.321539884 218.0
25.347800449 253.0
25.374061014 264.0
25.400321580 242.0
25.426582145 223.0
25.452842710 220.0
25.479103276 228.0
25.505363841 205.0
25.531624406 227.0
25.557884972 217.0
25.584145537 218.0
25.610406103 238.0
25.636666668 236.0
25.662927233 258.0
25.689187799 249.0
25.715448364 246.0
25.741708929 224.0
25.767969495 219.0
25.794230060 252.0
25.820490625 227.0
25.846751191 232.0
25.873011756 243.0
25.899272321 196.0
25.925532887 215.0
25.951793452 210.0
25.978054018 205.0
26.004314583 237.0
26.030575148 236.0
26.056835714 201.0
26.083096279 219.0
26.109356844 227.0
26.135617410 212.0
26.161877975 226.0
26.188138540 225.0
26.214399106 218.0
26.240659671 238.0
26.266920237 206.0
26.293180802 195.0
26.319441367 211.0
26.345701933 238.0
26.371962498 221.0
26.398223063 209.0
26.424483629 213.0
26.450744194 240.0
26.477004759 219.0
26.503265325 220.0
26.529525890 211.0
26.555786455 206.0
26.582047021 173.0
26.608307586 193.0
26.634568152 208.0
26.660828717 193.0
26.687089282 190.0
26.713349848 191.0
26.739610413 219.0
26.765870978 210.0
26.792131544 194.0
26.818392109 195.0
26.844652674 190.0
26.870913240 193.0
26.897173805 189.0
26.923434370 207.0
26.949694936 212.0
26.975955501 216.0
27.002216067 216.0
27.028476632 193.0
27.054737197 195.0
27.080997763 217.0
27.107258328 231.0
27.133518893 236.0
27.159779459 211.0
27.186040024 192.0
27.212300589 220.0
27.238561155 185.0
27.264821720 210.0
27.291082285 202.0
27.317342851 172.0
27.343603416 163.0
27.369863982 209.0
27.396124547 228.0
27.422385112 186.0
27.448645678 196.0
27.474906243 185.0
27.501166808 201.0
27.527427374 216.0
27.553687939 200.0
27.579948504 192.0
27.606209070 203.0
27.632469635 198.0
27.658730200 204.0
27.684990766 179.0
27.711251331 188.0
27.737511897 199.0
27.763772462 201.0
27.790033027 187.0
27.816293593 191.0
27.842554158 196.0
27.868814723 176.0
27.895075289 186.0
27.921335854 196.0
27.947596419 186.0
27.973856985 178.0
28.000117550 169.0
28.026378115 201.0
28.052638681 188.0
28.078899246 216.0
28.105159812 195.0
28.131420377 205.0
28.157680942 195.0
28.183941508 187.0
28.210202073 213.0
28.236462638 197.0
28.262723204 173.0
28.288983769 199.0
28.315244334 213.0
28.341504900 182.0
28.367765465 182.0
28.394026030 188.0
28.420286596 169.0
28.446547161 208.0
28.472807727 195.0
28.499068292 182.0
28.525328857 183.0
28.551589423 195.0
28.577849988 192.0
28.604110553 168.0
28.630371119 186.0
28.656631684 201.0
28.682892249 187.0
28.709152815 172.0
28.735413380 197.0
28.761673946 202.0
28.787934511 230.0
28.814195076 208.0
28.840455642 192.0
28.866716207 224.0
28.892976772 171.0
28.919237338 202.0
28.945497903 213.0
28.971758468 182.0
28.998019034 193.0
29.024279599 178.0
29.050540164 179.0
29.076800730 188.0
29.103061295 186.0
29.129321861 190.0
29.155582426 181.0
29.181842991 191.0
29.208103557 189.0
29.234364122 211.0
29.260624687 203.0
29.286885253 208.0
29.313145818 210.0
29.339406383 188.0
29.365666949 193.0
29.391927514 208.0
29.418188079 200.0
29.444448645 185.0
29.470709210 200.0
29.496969776 207.0
29.523230341 199.0
29.549490906 201.0
29.575751472 219.0
29.602012037 196.0
29.628272602 180.0
29.654533168 208.0
29.680793733 194.0
29.707054298 205.0
29.733314864 218.0
29.759575429 199.0
29.785835994 191.0
29.812096560 193.0
29.838357125 210.0
29.864617691 219.0
29.890878256 217.0
29.917138821 216.0
29.943399387 200.0
29.969659952 219.0
29.995920517 202.0
30.022181083 211.0
30.048441648 254.0
30.074702213 232.0
30.100962779 262.0
30.127223344 270.0
30.153483909 238.0
30.179744475 314.0
30.206005040 289.0
30.232265606 279.0
30.258526171 287.0
30.284786736 306.0
30.311047302 295.0
30.337307867 349.0
30.363568432 362.0
30.389828998 348.0
30.416089563 361.0
30.442350128 379.0
30.468610694 360.0
30.494871259 407.0
30.521131824 439.0
30.547392390 400.0
30.573652955 455.0
30.599913521 455.0
30.626174086 482.0
30.652434651 483.0
30.678695217 431.0
30.704955782 490.0
30.731216347 517.0
30.757476913 508.0
30.783737478 491.0
30.809998043 523.0
30.836258609 513.0
30.862519174 503.0
30.888779739 520.0
30.915040305 509.0
30.941300870 527.0
30.967561436 485.0
30.993822001 559.0
31.020082566 492.0
31.046343132 527.0
31.072603697 524.0
31.098864262 502.0
31.125124828 515.0
31.151385393 574.0
31.177645958 500.0
31.203906524 538.0
31.230167089 559.0
31.256427654 528.0
31.282688220 579.0
31.308948785 544.0
31.335209351 541.0
31.361469916 556.0
31.387730481 554.0
31.413991047 601.0
31.440251612 544.0
31.466512177 521.0
31.492772743 563.0
31.519033308 572.0
31.545293873 545.0
31.571554439 512.0
31.597815004 537.0
31.624075570 549.0
31.650336135 546.0
31.676596700 512.0
31.702857266 483.0
31.729117831 506.0
31.755378396 486.0
31.781638962 477.0
31.807899527 489.0
31.834160092 525.0
31.860420658 482.0
31.886681223 446.0
31.912941788 450.0
31.939202354 482.0
31.965462919 433.0
31.991723485 450.0
32.017984050 447.0
32.044244615 429.0
32.070505181 395.0
32.096765746 398.0
32.123026311 373.0
32.149286877 293.0
32.175547442 292.0
32.201808007 260.0
32.228068573 239.0
32.254329138 242.0
32.280589703 202.0
32.306850269 192.0
32.333110834 185.0
32.359371400 175.0
32.385631965 149.0
32.411892530 145.0
32.438153096 142.0
32.464413661 157.0
32.490674226 168.0
32.516934792 138.0
32.543195357 149.0
32.569455922 160.0
32.595716488 155.0
32.621977053 154.0
32.648237618 151.0
32.674498184 157.0
32.700758749 156.0
32.727019315 154.0
32.753279880 128.0
32.779540445 147.0
32.805801011 140.0
32.832061576 129.0
32.858322141 124.0
32.884582707 135.0
32.910843272 133.0
32.937103837 150.0
32.963364403 152.0
32.989624968 138.0
33.015885533 170.0
33.042146099 149.0
33.068406664 128.0
33.094667230 147.0
33.120927795 142.0
33.147188360 125.0
33.173448926 133.0
33.199709491 126.0
33.225970056 141.0
33.252230622 133.0
33.278491187 147.0
33.304751752 137.0
33.331012318 136.0
33.357272883 133.0
33.383533448 169.0
33.409794014 142.0
33.436054579 161.0
33.462315145 136.0
33.488575710 143.0
33.514836275 140.0
33.541096841 148.0
33.567357406 131.0
33.593617971 155.0
33.619878537 127.0
33.646139102 143.0
33.672399667 152.0
33.698660233 142.0
33.724920798 133.0
33.751181363 147.0
33.777441929 163.0
33.803702494 163.0
33.829963060 171.0
33.856223625 179.0
33.882484190 149.0
33.908744756 176.0
33.935005321 160.0
33.961265886 149.0
33.987526452 168.0
34.013787017 169.0
34.040047582 187.0
34.066308148 166.0
34.092568713 180.0
34.118829279 166.0
34.145089844 167.0
34.171350409 182.0
34.197610975 190.0
34.223871540 165.0
34.250132105 188.0
34.276392671 190.0
34.302653236 208.0
34.328913801 188.0
34.355174367 206.0
34.381434932 205.0
34.407695497 205.0
34.433956063 192.0
34.460216628 203.0
34.486477194 205.0
34.512737759 198.0
34.538998324 211.0
34.565258890 194.0
34.591519455 208.0
34.617780020 188.0
34.644040586 204.0
34.670301151 191.0
34.696561716 218.0
34.722822282 182.0
34.749082847 186.0
34.775343412 236.0
34.801603978 223.0
34.827864543 197.0
34.854125109 200.0
34.880385674 192.0
34.906646239 181.0
34.932906805 212.0
34.959167370 191.0
34.985427935 185.0
35.011688501 193.0
35.037949066 205.0
35.064209631 182.0
35.090470197 164.0
35.116730762 200.0
35.142991327 207.0
35.169251893 200.0
35.195512458 171.0
35.221773024 189.0
35.248033589 220.0
35.274294154 209.0
35.300554720 226.0
35.326815285 204.0
35.353075850 191.0
35.379336416 207.0
35.405596981 208.0
35.431857546 199.0
35.458118112 211.0
35.484378677 195.0
35.510639242 206.0
35.536899808 191.0
35.563160373 165.0
35.589420939 177.0
35.615681504 181.0
35.641942069 220.0
35.668202635 192.0
35.694463200 196.0
35.720723765 193.0
35.746984331 198.0
35.773244896 179.0
35.799505461 183.0
35.825766027 193.0
35.852026592 162.0
35.878287157 178.0
35.904547723 158.0
35.930808288 173.0
35.957068854 177.0
35.983329419 159.0
36.009589984 160.0
36.035850550 132.0
36.062111115 162.0
36.088371680 142.0
36.114632246 131.0
36.140892811 130.0
36.167153376 129.0
36.193413942 133.0
36.219674507 132.0
36.245935072 116.0
36.272195638 117.0
36.298456203 116.0
36.324716769 120.0
36.350977334 138.0
36.377237899 111.0
36.403498465 117.0
36.429759030 118.0
36.456019595 102.0
36.482280161 105.0
36.508540726 128.0
36.534801291 130.0
36.561061857 112.0
36.587322422 134.0
36.613582987 114.0
36.639843553 136.0
36.666104118 122.0
36.692364684 127.0
36.718625249 116.0
36.744885814 126.0
36.771146380 127.0
36.797406945 129.0
36.823667510 119.0
36.849928076 127.0
36.876188641 139.0
36.902449206 146.0
36.928709772 146.0
36.954970337 128.0
36.981230903 142.0
37.007491468 139.0
37.033752033 138.0
37.060012599 153.0
37.086273164 142.0
37.112533729 147.0
37.138794295 171.0
37.165054860 148.0
37.191315425 190.0
37.217575991 163.0
37.243836556 167.0
37.270097121 187.0
37.296357687 194.0
37.322618252 175.0
37.348878818 177.0
37.375139383 215.0
37.401399948 176.0
37.427660514 190.0
37.453921079 213.0
37.480181644 185.0
37.506442210 191.0
37.532702775 225.0
37.558963340 215.0
37.585223906 205.0
37.611484471 232.0
37.637745036 196.0
37.664005602 239.0
37.690266167 216.0
37.716526733 259.0
37.742787298 263.0
37.769047863 244.0
37.795308429 238.0
37.821568994 246.0
37.847829559 252.0
37.874090125 274.0
37.900350690 230.0
37.926611255 268.0
37.952871821 294.0
37.979132386 270.0
38.005392951 249.0
38.031653517 275.0
38.057914082 270.0
38.084174648 283.0
38.110435213 290.0
38.136695778 277.0
38.162956344 308.0
38.189216909 269.0
38.215477474 256.0
38.241738040 257.0
38.267998605 291.0
38.294259170 291.0
38.320519736 300.0
38.346780301 307.0
38.373040866 303.0
38.399301432 284.0
38.425561997 318.0
38.451822563 274.0
38.478083128 308.0
38.504343693 291.0
38.530604259 280.0
38.556864824 287.0
38.583125389 270.0
38.609385955 260.0
38.635646520 293.0
38.661907085 280.0
38.688167651 288.0
38.714428216 271.0
38.740688781 290.0
38.766949347 344.0
38.793209912 305.0
38.819470478 281.0
38.845731043 275.0
38.871991608 287.0
38.898252174 310.0
38.924512739 312.0
38.950773304 295.0
38.977033870 278.0
39.003294435 264.0
39.029555000 283.0
39.055815566 297.0
39.082076131 284.0
39.108336696 264.0
39.134597262 265.0
39.160857827 279.0
39.187118393 289.0
39.213378958 261.0
39.239639523 270.0
39.265900089 258.0
39.292160654 276.0
39.318421219 248.0
39.344681785 254.0
39.370942350 230.0
39.397202915 228.0
39.423463481 223.0
39.449724046 191.0
39.475984612 221.0
39.502245177 217.0
39.528505742 184.0
39.554766308 187.0
39.581026873 204.0
39.607287438 178.0
39.633548004 159.0
39.659808569 141.0
39.686069134 142.0
39.712329700 140.0
39.738590265 151.0
39.764850830 121.0
39.791111396 120.0
39.817371961 105.0
39.843632527 112.0
39.869893092 117.0
39.896153657 119.0
39.922414223 113.0
39.948674788 127.0
39.974935353 119.0
40.001195919 101.0
40.027456484 111.0
40.053717049 128.0
40.079977615 99.0
40.106238180 110.0
40.132498745 114.0
40.158759311 114.0
40.185019876 109.0
40.211280442 99.0
40.237541007 117.0
40.263801572 108.0
40.290062138 101.0
40.316322703 110.0
40.342583268 101.0
40.368843834 108.0
40.395104399 96.0
40.421364964 106.0
40.447625530 105.0
40.473886095 105.0
40.500146660 103.0
40.526407226 110.0
40.552667791 118.0
40.578928357 101.0
40.605188922 95.0
40.631449487 105.0
40.657710053 120.0
40.683970618 99.0
40.710231183 93.0
40.736491749 121.0
40.762752314 99.0
40.789012879 90.0
40.815273445 94.0
40.841534010 100.0
40.867794575 116.0
40.894055141 113.0
40.920315706 107.0
40.946576272 85.0
40.972836837 98.0
40.999097402 118.0
41.025357968 97.0
41.051618533 96.0
41.077879098 108.0
41.104139664 107.0
41.130400229 96.0
41.156660794 116.0
41.182921360 111.0
41.209181925 109.0
41.235442490 104.0
41.261703056 122.0
41.287963621 103.0
41.314224187 114.0
41.340484752 91.0
41.366745317 101.0
41.393005883 99.0
41.419266448 100.0
41.445527013 106.0
41.471787579 98.0
41.498048144 90.0
41.524308709 102.0
41.550569275 113.0
41.576829840 102.0
41.603090405 88.0
41.629350971 107.0
41.655611536 102.0
41.681872102 105.0
41.708132667 110.0
41.734393232 97.0
41.760653798 117.0
41.786914363 104.0
41.813174928 91.0
41.839435494 106.0
41.865696059 104.0
41.891956624 122.0
41.918217190 109.0
41.944477755 92.0
41.970738320 108.0
41.996998886 87.0
42.023259451 85.0
42.049520017 90.0
42.075780582 97.0
42.102041147 92.0
42.128301713 94.0
42.154562278 106.0
42.180822843 96.0
42.207083409 93.0
42.233343974 86.0
42.259604539 133.0
42.285865105 107.0
42.312125670 102.0
42.338386236 94.0
42.364646801 104.0
42.390907366 106.0
42.417167932 96.0
42.443428497 115.0
42.469689062 94.0
42.495949628 108.0
42.522210193 101.0
42.548470758 122.0
42.574731324 116.0
42.600991889 106.0
42.627252454 96.0
42.653513020 121.0
42.679773585 109.0
42.706034151 103.0
42.732294716 96.0
42.758555281 92.0
42.784815847 96.0
42.811076412 116.0
42.837336977 108.0
42.863597543 104.0
42.889858108 105.0
42.916118673 109.0
42.942379239 104.0
42.968639804 105.0
42.994900369 106.0
43.021160935 87.0
43.047421500 105.0
43.073682066 133.0
43.099942631 116.0
43.126203196 138.0
43.152463762 116.0
43.178724327 98.0
43.204984892 119.0
43.231245458 113.0
43.257506023 110.0
43.283766588 118.0
43.310027154 109.0
43.336287719 130.0
43.362548284 110.0
43.388808850 138.0
43.415069415 131.0
43.441329981 154.0
43.467590546 135.0
43.493851111 127.0
43.520111677 154.0
43.546372242 141.0
43.572632807 152.0
43.598893373 145.0
43.625153938 164.0
43.651414503 172.0
43.677675069 168.0
43.703935634 157.0
43.730196199 167.0
43.756456765 183.0
43.782717330 178.0
43.808977896 168.0
43.835238461 175.0
43.861499026 178.0
43.887759592 170.0
43.914020157 149.0
43.940280722 158.0
43.966541288 166.0
43.992801853 189.0
44.019062418 185.0
44.045322984 147.0
44.071583549 173.0
44.097844114 181.0
44.124104680 187.0
44.150365245 190.0
44.176625811 200.0
44.202886376 170.0
44.229146941 176.0
44.255407507 205.0
44.281668072 202.0
44.307928637 176.0
44.334189203 191.0
44.360449768 174.0
44.386710333 198.0
44.412970899 168.0
44.439231464 182.0
44.465492029 162.0
44.491752595 191.0
44.518013160 223.0
44.544273726 192.0
44.570534291 194.0
44.596794856 199.0
44.623055422 179.0
44.649315987 183.0
44.675576552 183.0
44.701837118 212.0
44.728097683 218.0
44.754358248 191.0
44.780618814 206.0
44.806879379 210.0
44.833139945 200.0
44.859400510 207.0
44.885661075 201.0
44.911921641 192.0
44.938182206 193.0
44.964442771 196.0
44.990703337 206.0
45.016963902 204.0
45.043224467 220.0
45.069485033 226.0
45.095745598 187.0
45.122006163 211.0
45.148266729 159.0
45.174527294 201.0
45.200787860 199.0
45.227048425 213.0
45.253308990 184.0
45.279569556 192.0
45.305830121 206.0
45.332090686 182.0
45.358351252 185.0
45.384611817 192.0
45.410872382 192.0
45.437132948 201.0
45.463393513 197.0
45.489654078 199.0
45.515914644 186.0
45.542175209 176.0
45.568435775 210.0
45.594696340 198.0
45.620956905 188.0
45.647217471 199.0
45.673478036 169.0
45.699738601 171.0
45.725999167 169.0
45.752259732 176.0
45.778520297 162.0
45.804780863 144.0
45.831041428 156.0
45.857301993 171.0
45.883562559 139.0
45.909823124 171.0
45.936083690 145.0
45.962344255 144.0
45.988604820 137.0
46.014865386 148.0
46.041125951 118.0
46.067386516 132.0
46.093647082 145.0
46.119907647 148.0
46.146168212 143.0
46.172428778 124.0
46.198689343 110.0
46.224949908 126.0
46.251210474 115.0
46.277471039 105.0
46.303731605 118.0
46.329992170 120.0
46.356252735 132.0
46.382513301 119.0
46.408773866 131.0
46.435034431 107.0
46.461294997 120.0
46.487555562 115.0
46.513816127 119.0
46.540076693 127.0
46.566337258 109.0
46.592597823 110.0
46.618858389 120.0
46.645118954 104.0
46.671379520 119.0
46.697640085 104.0
46.723900650 127.0
46.750161216 102.0
46.776421781 118.0
46.802682346 113.0
46.828942912 106.0
46.855203477 107.0
46.881464042 101.0
46.907724608 125.0
46.933985173 132.0
46.960245738 104.0
46.986506304 111.0
47.012766869 117.0
47.039027435 131.0
47.065288000 129.0
47.091548565 122.0
47.117809131 116.0
47.144069696 122.0
47.170330261 120.0
47.196590827 116.0
47.222851392 149.0
47.249111957 117.0
47.275372523 105.0
47.301633088 133.0
47.327893653 108.0
47.354154219 113.0
47.380414784 132.0
47.406675350 110.0
47.432935915 125.0
47.459196480 118.0
47.485457046 104.0
47.511717611 131.0
47.537978176 100.0
47.564238742 96.0
47.590499307 116.0
47.616759872 115.0
47.643020438 126.0
47.669281003 108.0
47.695541569 116.0
47.721802134 112.0
47.748062699 111.0
47.774323265 132.0
47.800583830 116.0
47.826844395 116.0
47.853104961 123.0
47.879365526 123.0
47.905626091 102.0
47.931886657 120.0
47.958147222 109.0
47.984407787 134.0
48.010668353 115.0
48.036928918 120.0
48.063189484 123.0
48.089450049 123.0
48.115710614 115.0
48.141971180 120.0
48.168231745 123.0
48.194492310 115.0
48.220752876 129.0
48.247013441 127.0
48.273274006 150.0
48.299534572 120.0
48.325795137 108.0
48.352055702 127.0
48.378316268 116.0
48.404576833 92.0
48.430837399 120.0
48.457097964 102.0
48.483358529 107.0
48.509619095 131.0
48.535879660 131.0
48.562140225 125.0
48.588400791 114.0
48.614661356 112.0
48.640921921 98.0
48.667182487 116.0
48.693443052 134.0
48.719703617 117.0
48.745964183 95.0
48.772224748 130.0
48.798485314 113.0
48.824745879 118.0
48.851006444 126.0
48.877267010 112.0
48.903527575 144.0
48.929788140 106.0
48.956048706 128.0
48.982309271 124.0
49.008569836 122.0
49.034830402 123.0
49.061090967 125.0
49.087351532 113.0
49.113612098 110.0
49.139872663 105.0
49.166133229 113.0
49.192393794 115.0
49.218654359 128.0
49.244914925 134.0
49.271175490 131.0
49.297436055 118.0
49.323696621 117.0
49.349957186 119.0
49.376217751 104.0
49.402478317 121.0
49.428738882 123.0
49.454999447 132.0
49.481260013 122.0
49.507520578 139.0
49.533781144 130.0
49.560041709 124.0
49.586302274 134.0
49.612562840 113.0
49.638823405 130.0
49.665083970 149.0
49.691344536 130.0
49.717605101 142.0
49.743865666 117.0
49.770126232 118.0
49.796386797 131.0
49.822647362 152.0
49.848907928 144.0
49.875168493 147.0
49.901429059 135.0
49.927689624 134.0
49.953950189 120.0
49.980210755 126.0
50.006471320 131.0
