10.011630280 382.0
10.037890845 376.0
10.064151411 339.0
10.090411976 395.0
10.116672541 355.0
10.142933107 382.0
10.169193672 373.0
10.195454238 337.0
10.221714803 355.0
10.247975368 407.0
10.274235934 402.0
10.300496499 394.0
10.326757064 378.0
10.353017630 400.0
10.379278195 375.0
10.405538760 360.0
10.431799326 354.0
10.458059891 381.0
10.484320456 355.0
10.510581022 357.0
10.536841587 345.0
10.563102153 369.0
10.589362718 351.0
10.615623283 342.0
10.641883849 379.0
10.668144414 386.0
10.694404979 365.0
10.720665545 404.0
10.746926110 373.0
10.773186675 338.0
10.799447241 349.0
10.825707806 364.0
10.851968371 342.0
10.878228937 376.0
10.904489502 361.0
10.930750068 376.0
10.957010633 354.0
10.983271198 389.0
11.009531764 331.0
11.035792329 349.0
11.062052894 345.0
11.088313460 374.0
11.114574025 345.0
11.140834590 375.0
11.167095156 385.0
11.193355721 325.0
11.219616286 350.0
11.245876852 352.0
11.272137417 364.0
11.298397983 353.0
11.324658548 344.0
11.350919113 357.0
11.377179679 342.0
11.403440244 345.0
11.429700809 342.0
11.455961375 376.0
11.482221940 383.0
11.508482505 357.0
11.534743071 353.0
11.561003636 358.0
11.587264201 368.0
11.613524767 367.0
11.639785332 323.0
11.666045898 334.0
11.692306463 330.0
11.718567028 354.0
11.744827594 345.0
11.771088159 349.0
11.797348724 340.0
11.823609290 366.0
11.849869855 335.0
11.876130420 343.0
11.902390986 328.0
11.928651551 326.0
11.954912116 322.0
11.981172682 372.0
12.007433247 313.0
12.033693813 366.0
12.059954378 376.0
12.086214943 348.0
12.112475509 315.0
12.138736074 307.0
12.164996639 339.0
12.191257205 348.0
12.217517770 342.0
12.243778335 324.0
12.270038901 303.0
12.296299466 350.0
12.322560031 299.0
12.348820597 334.0
12.375081162 344.0
12.401341728 313.0
12.427602293 334.0
12.453862858 334.0
12.480123424 309.0
12.506383989 361.0
12.532644554 340.0
12.558905120 338.0
12.585165685 350.0
12.611426250 335.0
12.637686816 344.0
12.663947381 339.0
12.690207947 315.0
12.716468512 325.0
12.742729077 344.0
12.768989643 320.0
12.795250208 344.0
12.821510773 348.0
12.847771339 352.0
12.874031904 312.0
12.900292469 333.0
12.926553035 327.0
12.952813600 297.0
12.979074165 295.0
13.005334731 336.0
13.031595296 319.0
13.057855862 331.0
13.084116427 303.0
13.110376992 324.0
13.136637558 301.0
13.162898123 319.0
13.189158688 304.0
13.215419254 295.0
13.241679819 293.0
13.267940384 271.0
13.294200950 291.0
13.320461515 302.0
13.346722080 314.0
13.372982646 307.0
13.399243211 308.0
13.425503777 315.0
13.451764342 291.0
13.478024907 290.0
13.504285473 325.0
13.530546038 298.0
13.556806603 295.0
13.583067169 285.0
13.609327734 320.0
13.635588299 290.0
13.661848865 303.0
13.688109430 301.0
13.714369995 301.0
13.740630561 317.0
13.766891126 300.0
13.793151692 309.0
13.819412257 313.0
13.845672822 299.0
13.871933388 285.0
13.898193953 293.0
13.924454518 283.0
13.950715084 282.0
13.976975649 283.0
14.003236214 287.0
14.029496780 268.0
14.055757345 287.0
14.082017910 300.0
14.108278476 306.0
14.134539041 279.0
14.160799607 261.0
14.187060172 265.0
14.213320737 282.0
14.239581303 311.0
14.265841868 323.0
14.292102433 273.0
14.318362999 273.0
14.344623564 276.0
14.370884129 298.0
14.397144695 271.0
14.423405260 279.0
14.449665825 273.0
14.475926391 275.0
14.502186956 307.0
14.528447522 331.0
14.554708087 310.0
14.580968652 315.0
14.607229218 330.0
14.633489783 337.0
14.659750348 373.0
14.686010914 356.0
14.712271479 352.0
14.738532044 410.0
14.764792610 386.0
14.791053175 433.0
14.817313740 391.0
14.843574306 388.0
14.869834871 445.0
14.896095437 478.0
14.922356002 495.0
14.948616567 456.0
14.974877133 460.0
15.001137698 555.0
15.027398263 534.0
15.053658829 511.0
15.079919394 470.0
15.106179959 509.0
15.132440525 568.0
15.158701090 506.0
15.184961655 547.0
15.211222221 553.0
15.237482786 497.0
15.263743352 607.0
15.290003917 518.0
15.316264482 519.0
15.342525048 507.0
15.368785613 547.0
15.395046178 545.0
15.421306744 516.0
15.447567309 539.0
15.473827874 485.0
15.500088440 516.0
15.526349005 516.0
15.552609571 518.0
15.578870136 501.0
15.605130701 520.0
15.631391267 527.0
15.657651832 482.0
15.683912397 487.0
15.710172963 486.0
15.736433528 479.0
15.762694093 425.0
15.788954659 407.0
15.815215224 409.0
15.841475789 339.0
15.867736355 378.0
15.893996920 317.0
15.920257486 307.0
15.946518051 277.0
15.972778616 292.0
15.999039182 275.0
16.025299747 284.0
16.051560312 275.0
16.077820878 259.0
16.104081443 256.0
16.130342008 241.0
16.156602574 281.0
16.182863139 269.0
16.209123704 252.0
16.235384270 268.0
16.261644835 258.0
16.287905401 287.0
16.314165966 233.0
16.340426531 270.0
16.366687097 290.0
16.392947662 291.0
16.419208227 300.0
16.445468793 245.0
16.471729358 261.0
16.497989923 289.0
16.524250489 235.0
16.550511054 269.0
16.576771619 286.0
16.603032185 268.0
16.629292750 279.0
16.655553316 295.0
16.681813881 263.0
16.708074446 261.0
16.734335012 275.0
16.760595577 301.0
16.786856142 277.0
16.813116708 291.0
16.839377273 285.0
16.865637838 253.0
16.891898404 265.0
16.918158969 284.0
16.944419534 271.0
16.970680100 283.0
16.996940665 281.0
17.023201231 281.0
17.049461796 266.0
17.075722361 258.0
17.101982927 285.0
17.128243492 244.0
17.154504057 259.0
17.180764623 269.0
17.207025188 256.0
17.233285753 258.0
17.259546319 264.0
17.285806884 255.0
17.312067449 257.0
17.338328015 260.0
17.364588580 296.0
17.390849146 279.0
17.417109711 280.0
17.443370276 262.0
17.469630842 273.0
17.495891407 257.0
17.522151972 252.0
17.548412538 274.0
17.574673103 255.0
17.600933668 255.0
17.627194234 270.0
17.653454799 286.0
17.679715364 276.0
17.705975930 273.0
17.732236495 258.0
17.758497061 271.0
17.784757626 279.0
17.811018191 281.0
17.837278757 272.0
17.863539322 294.0
17.889799887 259.0
17.916060453 253.0
17.942321018 252.0
17.968581583 259.0
17.994842149 284.0
18.021102714 285.0
18.047363280 241.0
18.073623845 294.0
18.099884410 268.0
18.126144976 256.0
18.152405541 308.0
18.178666106 295.0
18.204926672 254.0
18.231187237 294.0
18.257447802 257.0
18.283708368 275.0
18.309968933 261.0
18.336229498 257.0
18.362490064 253.0
18.388750629 299.0
18.415011195 328.0
18.441271760 229.0
18.467532325 279.0
18.493792891 248.0
18.520053456 265.0
18.546314021 248.0
18.572574587 303.0
18.598835152 288.0
18.625095717 270.0
18.651356283 267.0
18.677616848 299.0
18.703877413 279.0
18.730137979 269.0
18.756398544 259.0
18.782659110 277.0
18.808919675 300.0
18.835180240 294.0
18.861440806 279.0
18.887701371 281.0
18.913961936 294.0
18.940222502 280.0
18.966483067 258.0
18.992743632 284.0
19.019004198 273.0
19.045264763 273.0
19.071525328 272.0
19.097785894 305.0
19.124046459 297.0
19.150307025 281.0
19.176567590 293.0
19.202828155 323.0
19.229088721 267.0
19.255349286 300.0
19.281609851 274.0
19.307870417 243.0
19.334130982 271.0
19.360391547 295.0
19.386652113 326.0
19.412912678 257.0
19.439173243 290.0
19.465433809 318.0
19.491694374 294.0
19.517954940 300.0
19.544215505 291.0
19.570476070 290.0
19.596736636 286.0
19.622997201 305.0
19.649257766 316.0
19.675518332 312.0
19.701778897 303.0
19.728039462 303.0
19.754300028 285.0
19.780560593 279.0
19.806821158 315.0
19.833081724 303.0
19.859342289 275.0
19.885602855 299.0
19.911863420 314.0
19.938123985 316.0
19.964384551 293.0
19.990645116 286.0
20.016905681 333.0
20.043166247 317.0
20.069426812 305.0
20.095687377 323.0
20.121947943 291.0
20.148208508 306.0
20.174469073 308.0
20.200729639 286.0
20.226990204 278.0
20.253250770 287.0
20.279511335 312.0
20.305771900 302.0
20.332032466 293.0
20.358293031 287.0
20.384553596 285.0
20.410814162 309.0
20.437074727 294.0
20.463335292 290.0
20.489595858 354.0
20.515856423 307.0
20.542116988 302.0
20.568377554 301.0
20.594638119 277.0
20.620898685 309.0
20.647159250 330.0
20.673419815 294.0
20.699680381 311.0
20.725940946 330.0
20.752201511 323.0
20.778462077 334.0
20.804722642 362.0
20.830983207 342.0
20.857243773 325.0
20.883504338 369.0
20.909764904 370.0
20.936025469 408.0
20.962286034 383.0
20.988546600 413.0
21.014807165 408.0
21.041067730 427.0
21.067328296 481.0
21.093588861 531.0
21.119849426 517.0
21.146109992 574.0
21.172370557 588.0
21.198631122 638.0
21.224891688 629.0
21.251152253 638.0
21.277412819 663.0
21.303673384 651.0
21.329933949 686.0
21.356194515 766.0
21.382455080 661.0
21.408715645 733.0
21.434976211 680.0
21.461236776 748.0
21.487497341 695.0
21.513757907 733.0
21.540018472 762.0
21.566279037 670.0
21.592539603 760.0
21.618800168 764.0
21.645060734 749.0
21.671321299 769.0
21.697581864 790.0
21.723842430 715.0
21.750102995 730.0
21.776363560 794.0
21.802624126 790.0
21.828884691 754.0
21.855145256 712.0
21.881405822 792.0
21.907666387 756.0
21.933926952 772.0
21.960187518 761.0
21.986448083 752.0
22.012708649 730.0
22.038969214 744.0
22.065229779 731.0
22.091490345 737.0
22.117750910 714.0
22.144011475 734.0
22.170272041 666.0
22.196532606 682.0
22.222793171 659.0
22.249053737 678.0
22.275314302 614.0
22.301574867 618.0
22.327835433 600.0
22.354095998 612.0
22.380356564 554.0
22.406617129 539.0
22.432877694 486.0
22.459138260 441.0
22.485398825 438.0
22.511659390 417.0
22.537919956 360.0
22.564180521 313.0
22.590441086 331.0
22.616701652 321.0
22.642962217 319.0
22.669222782 324.0
22.695483348 333.0
22.721743913 279.0
22.748004479 291.0
22.774265044 319.0
22.800525609 301.0
22.826786175 301.0
22.853046740 294.0
22.879307305 303.0
22.905567871 277.0
22.931828436 309.0
22.958089001 324.0
22.984349567 278.0
23.010610132 284.0
23.036870697 286.0
23.063131263 271.0
23.089391828 280.0
23.115652394 278.0
23.141912959 285.0
23.168173524 253.0
23.194434090 265.0
23.220694655 289.0
23.246955220 256.0
23.273215786 275.0
23.299476351 268.0
23.325736916 290.0
23.351997482 265.0
23.378258047 253.0
23.404518613 273.0
23.430779178 305.0
23.457039743 277.0
23.483300309 252.0
23.509560874 250.0
23.535821439 250.0
23.562082005 266.0
23.588342570 270.0
23.614603135 261.0
23.640863701 285.0
23.667124266 239.0
23.693384831 273.0
23.719645397 277.0
23.745905962 251.0
23.772166528 282.0
23.798427093 248.0
23.824687658 278.0
23.850948224 248.0
23.877208789 255.0
23.903469354 272.0
23.929729920 272.0
23.955990485 238.0
23.982251050 262.0
24.008511616 259.0
24.034772181 282.0
24.061032746 258.0
24.087293312 275.0
24.113553877 273.0
24.139814443 266.0
24.166075008 258.0
24.192335573 287.0
24.218596139 262.0
24.244856704 266.0
24.271117269 272.0
24.297377835 272.0
24.323638400 260.0
24.349898965 244.0
24.376159531 263.0
24.402420096 254.0
24.428680661 282.0
24.454941227 281.0
24.481201792 240.0
24.507462358 269.0
24.533722923 242.0
24.559983488 260.0
24.586244054 245.0
24.612504619 284.0
24.638765184 253.0
24.665025750 256.0
24.691286315 279.0
24.717546880 254.0
24.743807446 274.0
24.770068011 252.0
24.796328576 280.0
24.822589142 287.0
24.848849707 272.0
24.875110273 249.0
24.901370838 259.0
24.927631403 250.0
24.953891969 255.0
24.980152534 287.0
25.006413099 284.0
25.032673665 251.0
25.058934230 219.0
25.085194795 266.0
25.111455361 273.0
25.137715926 253.0
25.163976491 270.0
25.190237057 273.0
25.216497622 247.0
25.242758188 248.0
25.269018753 236.0
25.295279318 229.0
25.321539884 215.0
25.347800449 236.0
25.374061014 233.0
25.400321580 230.0
25.426582145 221.0
25.452842710 243.0
25.479103276 215.0
25.505363841 232.0
25.531624406 271.0
25.557884972 241.0
25.584145537 240.0
25.610406103 213.0
25.636666668 242.0
25.662927233 223.0
25.689187799 254.0
25.715448364 227.0
25.741708929 226.0
25.767969495 247.0
25.794230060 235.0
25.820490625 258.0
25.846751191 213.0
25.873011756 243.0
25.899272321 218.0
25.925532887 223.0
25.951793452 212.0
25.978054018 229.0
26.004314583 216.0
26.030575148 236.0
26.056835714 242.0
26.083096279 229.0
26.109356844 231.0
26.135617410 224.0
26.161877975 215.0
26.188138540 226.0
26.214399106 247.0
26.240659671 225.0
26.266920237 236.0
26.293180802 241.0
26.319441367 192.0
26.345701933 230.0
26.371962498 217.0
26.398223063 231.0
26.424483629 239.0
26.450744194 218.0
26.477004759 230.0
26.503265325 198.0
26.529525890 192.0
26.555786455 237.0
26.582047021 221.0
26.608307586 230.0
26.634568152 227.0
26.660828717 225.0
26.687089282 228.0
26.713349848 217.0
26.739610413 207.0
26.765870978 213.0
26.792131544 195.0
26.818392109 227.0
26.844652674 196.0
26.870913240 215.0
26.897173805 252.0
26.923434370 221.0
26.949694936 250.0
26.975955501 216.0
27.002216067 219.0
27.028476632 193.0
27.054737197 204.0
27.080997763 204.0
27.107258328 211.0
27.133518893 209.0
27.159779459 201.0
27.186040024 205.0
27.212300589 194.0
27.238561155 195.0
27.264821720 187.0
27.291082285 196.0
27.317342851 189.0
27.343603416 180.0
27.369863982 187.0
27.396124547 214.0
27.422385112 222.0
27.448645678 209.0
27.474906243 196.0
27.501166808 185.0
27.527427374 209.0
27.553687939 206.0
27.579948504 193.0
27.606209070 192.0
27.632469635 200.0
27.658730200 190.0
27.684990766 221.0
27.711251331 196.0
27.737511897 207.0
27.763772462 205.0
27.790033027 185.0
27.816293593 220.0
27.842554158 187.0
27.868814723 155.0
27.895075289 193.0
27.921335854 192.0
27.947596419 207.0
27.973856985 210.0
28.000117550 215.0
28.026378115 189.0
28.052638681 219.0
28.078899246 201.0
28.105159812 208.0
28.131420377 208.0
28.157680942 205.0
28.183941508 210.0
28.210202073 205.0
28.236462638 222.0
28.262723204 217.0
28.288983769 172.0
28.315244334 196.0
28.341504900 215.0
28.367765465 194.0
28.394026030 201.0
28.420286596 204.0
28.446547161 206.0
28.472807727 196.0
28.499068292 214.0
28.525328857 207.0
28.551589423 192.0
28.577849988 235.0
28.604110553 189.0
28.630371119 205.0
28.656631684 205.0
28.682892249 214.0
28.709152815 190.0
28.735413380 189.0
28.761673946 192.0
28.787934511 183.0
28.814195076 201.0
28.840455642 168.0
28.866716207 182.0
28.892976772 193.0
28.919237338 198.0
28.945497903 195.0
28.971758468 204.0
28.998019034 186.0
29.024279599 179.0
29.050540164 194.0
29.076800730 204.0
29.103061295 207.0
29.129321861 179.0
29.155582426 196.0
29.181842991 225.0
29.208103557 187.0
29.234364122 192.0
29.260624687 209.0
29.286885253 187.0
29.313145818 202.0
29.339406383 206.0
29.365666949 208.0
29.391927514 208.0
29.418188079 204.0
29.444448645 213.0
29.470709210 224.0
29.496969776 214.0
29.523230341 213.0
29.549490906 235.0
29.575751472 212.0
29.602012037 211.0
29.628272602 235.0
29.654533168 244.0
29.680793733 225.0
29.707054298 276.0
29.733314864 256.0
29.759575429 290.0
29.785835994 271.0
29.812096560 274.0
29.838357125 290.0
29.864617691 305.0
29.890878256 337.0
29.917138821 298.0
29.943399387 301.0
29.969659952 328.0
29.995920517 350.0
30.022181083 359.0
30.048441648 385.0
30.074702213 417.0
30.100962779 379.0
30.127223344 415.0
30.153483909 398.0
30.179744475 476.0
30.206005040 428.0
30.232265606 452.0
30.258526171 489.0
30.284786736 475.0
30.311047302 478.0
30.337307867 506.0
30.363568432 504.0
30.389828998 540.0
30.416089563 492.0
30.442350128 552.0
30.468610694 537.0
30.494871259 547.0
30.521131824 536.0
30.547392390 577.0
30.573652955 543.0
30.599913521 578.0
30.626174086 571.0
30.652434651 563.0
30.678695217 573.0
30.704955782 568.0
30.731216347 565.0
30.757476913 605.0
30.783737478 547.0
30.809998043 588.0
30.836258609 537.0
30.862519174 577.0
30.888779739 577.0
30.915040305 569.0
30.941300870 592.0
30.967561436 580.0
30.993822001 537.0
31.020082566 549.0
31.046343132 574.0
31.072603697 616.0
31.098864262 569.0
31.125124828 553.0
31.151385393 582.0
31.177645958 566.0
31.203906524 567.0
31.230167089 574.0
31.256427654 596.0
31.282688220 555.0
31.308948785 604.0
31.335209351 539.0
31.361469916 652.0
31.387730481 611.0
31.413991047 555.0
31.440251612 570.0
31.466512177 540.0
31.492772743 540.0
31.519033308 498.0
31.545293873 520.0
31.571554439 544.0
31.597815004 528.0
31.624075570 557.0
31.650336135 480.0
31.676596700 486.0
31.702857266 442.0
31.729117831 478.0
31.755378396 455.0
31.781638962 434.0
31.807899527 428.0
31.834160092 387.0
31.860420658 394.0
31.886681223 374.0
31.912941788 360.0
31.939202354 318.0
31.965462919 328.0
31.991723485 305.0
32.017984050 247.0
32.044244615 244.0
32.070505181 229.0
32.096765746 231.0
32.123026311 193.0
32.149286877 208.0
32.175547442 191.0
32.201808007 170.0
32.228068573 170.0
32.254329138 173.0
32.280589703 140.0
32.306850269 160.0
32.333110834 163.0
32.359371400 137.0
32.385631965 157.0
32.411892530 152.0
32.438153096 145.0
32.464413661 172.0
32.490674226 161.0
32.516934792 179.0
32.543195357 142.0
32.569455922 131.0
32.595716488 127.0
32.621977053 176.0
32.648237618 151.0
32.674498184 135.0
32.700758749 132.0
32.727019315 147.0
32.753279880 136.0
32.779540445 158.0
32.805801011 141.0
32.832061576 150.0
32.858322141 139.0
32.884582707 134.0
32.910843272 133.0
32.937103837 135.0
32.963364403 149.0
32.989624968 128.0
33.015885533 127.0
33.042146099 148.0
33.068406664 132.0
33.094667230 143.0
33.120927795 122.0
33.147188360 142.0
33.173448926 167.0
33.199709491 142.0
33.225970056 134.0
33.252230622 161.0
33.278491187 125.0
33.304751752 166.0
33.331012318 142.0
33.357272883 130.0
33.383533448 146.0
33.409794014 165.0
33.436054579 157.0
33.462315145 153.0
33.488575710 144.0
33.514836275 169.0
33.541096841 161.0
33.567357406 155.0
33.593617971 154.0
33.619878537 177.0
33.646139102 166.0
33.672399667 170.0
33.698660233 175.0
33.724920798 203.0
33.751181363 204.0
33.777441929 192.0
33.803702494 165.0
33.829963060 159.0
33.856223625 215.0
33.882484190 222.0
33.908744756 172.0
33.935005321 208.0
33.961265886 198.0
33.987526452 196.0
34.013787017 184.0
34.040047582 191.0
34.066308148 198.0
34.092568713 183.0
34.118829279 198.0
34.145089844 225.0
34.171350409 223.0
34.197610975 203.0
34.223871540 186.0
34.250132105 183.0
34.276392671 210.0
34.302653236 185.0
34.328913801 185.0
34.355174367 217.0
34.381434932 214.0
34.407695497 224.0
34.433956063 226.0
34.460216628 199.0
34.486477194 208.0
34.512737759 208.0
34.538998324 211.0
34.565258890 235.0
34.591519455 221.0
34.617780020 229.0
34.644040586 215.0
34.670301151 207.0
34.696561716 209.0
34.722822282 206.0
34.749082847 212.0
34.775343412 195.0
34.801603978 206.0
34.827864543 207.0
34.854125109 191.0
34.880385674 200.0
34.906646239 194.0
34.932906805 195.0
34.959167370 236.0
34.985427935 201.0
35.011688501 193.0
35.037949066 189.0
35.064209631 208.0
35.090470197 214.0
35.116730762 221.0
35.142991327 197.0
35.169251893 206.0
35.195512458 204.0
35.221773024 218.0
35.248033589 205.0
35.274294154 171.0
35.300554720 187.0
35.326815285 183.0
35.353075850 182.0
35.379336416 198.0
35.405596981 245.0
35.431857546 189.0
35.458118112 160.0
35.484378677 204.0
35.510639242 171.0
35.536899808 165.0
35.563160373 177.0
35.589420939 183.0
35.615681504 183.0
35.641942069 168.0
35.668202635 205.0
35.694463200 165.0
35.720723765 200.0
35.746984331 176.0
35.773244896 181.0
35.799505461 154.0
35.825766027 185.0
35.852026592 131.0
35.878287157 155.0
35.904547723 148.0
35.930808288 149.0
35.957068854 126.0
35.983329419 137.0
36.009589984 148.0
36.035850550 126.0
36.062111115 152.0
36.088371680 127.0
36.114632246 129.0
36.140892811 137.0
36.167153376 122.0
36.193413942 107.0
36.219674507 119.0
36.245935072 91.0
36.272195638 144.0
36.298456203 121.0
36.324716769 127.0
36.350977334 116.0
36.377237899 124.0
36.403498465 133.0
36.429759030 145.0
36.456019595 148.0
36.482280161 114.0
36.508540726 127.0
36.534801291 127.0
36.561061857 141.0
36.587322422 167.0
36.613582987 133.0
36.639843553 133.0
36.666104118 159.0
36.692364684 136.0
36.718625249 146.0
36.744885814 137.0
36.771146380 157.0
36.797406945 123.0
36.823667510 172.0
36.849928076 143.0
36.876188641 168.0
36.902449206 177.0
36.928709772 181.0
36.954970337 183.0
36.981230903 168.0
37.007491468 193.0
37.033752033 180.0
37.060012599 181.0
37.086273164 188.0
37.112533729 215.0
37.138794295 195.0
37.165054860 226.0
37.191315425 202.0
37.217575991 223.0
37.243836556 220.0
37.270097121 211.0
37.296357687 257.0
37.322618252 253.0
37.348878818 258.0
37.375139383 251.0
37.401399948 218.0
37.427660514 273.0
37.453921079 266.0
37.480181644 242.0
37.506442210 226.0
37.532702775 240.0
37.558963340 277.0
37.585223906 281.0
37.611484471 295.0
37.637745036 271.0
37.664005602 273.0
37.690266167 274.0
37.716526733 301.0
37.742787298 267.0
37.769047863 287.0
37.795308429 285.0
37.821568994 316.0
37.847829559 268.0
37.874090125 272.0
37.900350690 271.0
37.926611255 290.0
37.952871821 276.0
37.979132386 301.0
38.005392951 284.0
38.031653517 307.0
38.057914082 330.0
38.084174648 274.0
38.110435213 277.0
38.136695778 304.0
38.162956344 293.0
38.189216909 278.0
38.215477474 298.0
38.241738040 284.0
38.267998605 294.0
38.294259170 301.0
38.320519736 288.0
38.346780301 303.0
38.373040866 276.0
38.399301432 284.0
38.425561997 253.0
38.451822563 299.0
38.478083128 298.0
38.504343693 276.0
38.530604259 328.0
38.556864824 289.0
38.583125389 261.0
38.609385955 288.0
38.635646520 280.0
38.661907085 274.0
38.688167651 272.0
38.714428216 262.0
38.740688781 246.0
38.766949347 285.0
38.793209912 275.0
38.819470478 259.0
38.845731043 251.0
38.871991608 247.0
38.898252174 252.0
38.924512739 246.0
38.950773304 245.0
38.977033870 248.0
39.003294435 221.0
39.029555000 256.0
39.055815566 210.0
39.082076131 242.0
39.108336696 220.0
39.134597262 224.0
39.160857827 225.0
39.187118393 241.0
39.213378958 193.0
39.239639523 195.0
39.265900089 173.0
39.292160654 184.0
39.318421219 176.0
39.344681785 182.0
39.370942350 172.0
39.397202915 178.0
39.423463481 168.0
39.449724046 148.0
39.475984612 137.0
39.502245177 133.0
39.528505742 128.0
39.554766308 126.0
39.581026873 103.0
39.607287438 99.0
39.633548004 122.0
39.659808569 128.0
39.686069134 130.0
39.712329700 124.0
39.738590265 108.0
39.764850830 109.0
39.791111396 115.0
39.817371961 123.0
39.843632527 118.0
39.869893092 112.0
39.896153657 111.0
39.922414223 121.0
39.948674788 123.0
39.974935353 118.0
40.001195919 102.0
40.027456484 101.0
40.053717049 107.0
40.079977615 117.0
40.106238180 110.0
40.132498745 105.0
40.158759311 117.0
40.185019876 112.0
40.211280442 113.0
40.237541007 119.0
40.263801572 105.0
40.290062138 96.0
40.316322703 123.0
40.342583268 125.0
40.368843834 110.0
40.395104399 108.0
40.421364964 108.0
40.447625530 117.0
40.473886095 99.0
40.500146660 98.0
40.526407226 105.0
40.552667791 94.0
40.578928357 79.0
40.605188922 104.0
40.631449487 97.0
40.657710053 110.0
40.683970618 110.0
40.710231183 97.0
40.736491749 98.0
40.762752314 113.0
40.789012879 90.0
40.815273445 113.0
40.841534010 95.0
40.867794575 91.0
40.894055141 122.0
40.920315706 99.0
40.946576272 85.0
40.972836837 91.0
40.999097402 95.0
41.025357968 103.0
41.051618533 88.0
41.077879098 95.0
41.104139664 85.0
41.130400229 99.0
41.156660794 101.0
41.182921360 96.0
41.209181925 110.0
41.235442490 95.0
41.261703056 111.0
41.287963621 107.0
41.314224187 83.0
41.340484752 84.0
41.366745317 97.0
41.393005883 101.0
41.419266448 103.0
41.445527013 104.0
41.471787579 96.0
41.498048144 104.0
41.524308709 108.0
41.550569275 98.0
41.576829840 96.0
41.603090405 79.0
41.629350971 86.0
41.655611536 104.0
41.681872102 94.0
41.708132667 103.0
41.734393232 92.0
41.760653798 89.0
41.786914363 105.0
41.813174928 92.0
41.839435494 96.0
41.865696059 97.0
41.891956624 105.0
41.918217190 99.0
41.944477755 88.0
41.970738320 77.0
41.996998886 110.0
42.023259451 99.0
42.049520017 107.0
42.075780582 89.0
42.102041147 95.0
42.128301713 95.0
42.154562278 119.0
42.180822843 88.0
42.207083409 94.0
42.233343974 105.0
42.259604539 95.0
42.285865105 107.0
42.312125670 112.0
42.338386236 105.0
42.364646801 99.0
42.390907366 92.0
42.417167932 115.0
42.443428497 107.0
42.469689062 94.0
42.495949628 112.0
42.522210193 126.0
42.548470758 102.0
42.574731324 87.0
42.600991889 131.0
42.627252454 112.0
42.653513020 98.0
42.679773585 123.0
42.706034151 111.0
42.732294716 98.0
42.758555281 120.0
42.784815847 125.0
42.811076412 123.0
42.837336977 123.0
42.863597543 113.0
42.889858108 118.0
42.916118673 124.0
42.942379239 125.0
42.968639804 127.0
42.994900369 147.0
43.021160935 110.0
43.047421500 137.0
43.073682066 127.0
43.099942631 151.0
43.126203196 145.0
43.152463762 159.0
43.178724327 169.0
43.204984892 161.0
43.231245458 128.0
43.257506023 175.0
43.283766588 160.0
43.310027154 137.0
43.336287719 145.0
43.362548284 157.0
43.388808850 142.0
43.415069415 167.0
43.441329981 169.0
43.467590546 186.0
43.493851111 163.0
43.520111677 180.0
43.546372242 166.0
43.572632807 187.0
43.598893373 178.0
43.625153938 201.0
43.651414503 198.0
43.677675069 177.0
43.703935634 176.0
43.730196199 176.0
43.756456765 157.0
43.782717330 181.0
43.808977896 204.0
43.835238461 188.0
43.861499026 204.0
43.887759592 207.0
43.914020157 191.0
43.940280722 210.0
43.966541288 195.0
43.992801853 166.0
44.019062418 207.0
44.045322984 209.0
44.071583549 187.0
44.097844114 188.0
44.124104680 222.0
44.150365245 186.0
44.176625811 189.0
44.202886376 205.0
44.229146941 187.0
44.255407507 191.0
44.281668072 190.0
44.307928637 207.0
44.334189203 206.0
44.360449768 206.0
44.386710333 188.0
44.412970899 198.0
44.439231464 193.0
44.465492029 201.0
44.491752595 187.0
44.518013160 184.0
44.544273726 211.0
44.570534291 208.0
44.596794856 215.0
44.623055422 193.0
44.649315987 207.0
44.675576552 223.0
44.701837118 184.0
44.728097683 215.0
44.754358248 164.0
44.780618814 180.0
44.806879379 196.0
44.833139945 202.0
44.859400510 207.0
44.885661075 200.0
44.911921641 209.0
44.938182206 206.0
44.964442771 207.0
44.990703337 195.0
45.016963902 202.0
45.043224467 181.0
45.069485033 214.0
45.095745598 183.0
45.122006163 217.0
45.148266729 201.0
45.174527294 162.0
45.200787860 182.0
45.227048425 201.0
45.253308990 153.0
45.279569556 178.0
45.305830121 197.0
45.332090686 178.0
45.358351252 188.0
45.384611817 188.0
45.410872382 180.0
45.437132948 187.0
45.463393513 184.0
45.489654078 146.0
45.515914644 171.0
45.542175209 158.0
45.568435775 133.0
45.594696340 140.0
45.620956905 157.0
45.647217471 182.0
45.673478036 137.0
45.699738601 142.0
45.725999167 147.0
45.752259732 132.0
45.778520297 141.0
45.804780863 156.0
45.831041428 129.0
45.857301993 123.0
45.883562559 148.0
45.909823124 128.0
45.936083690 112.0
45.962344255 135.0
45.988604820 123.0
46.014865386 115.0
46.041125951 122.0
46.067386516 147.0
46.093647082 127.0
46.119907647 121.0
46.146168212 115.0
46.172428778 123.0
46.198689343 125.0
46.224949908 142.0
46.251210474 121.0
46.277471039 125.0
46.303731605 130.0
46.329992170 124.0
46.356252735 120.0
46.382513301 126.0
46.408773866 125.0
46.435034431 143.0
46.461294997 126.0
46.487555562 123.0
46.513816127 135.0
46.540076693 127.0
46.566337258 133.0
46.592597823 136.0
46.618858389 144.0
46.645118954 130.0
46.671379520 136.0
46.697640085 115.0
46.723900650 139.0
46.750161216 141.0
46.776421781 140.0
46.802682346 131.0
46.828942912 120.0
46.855203477 133.0
46.881464042 129.0
46.907724608 144.0
46.933985173 132.0
46.960245738 133.0
46.986506304 134.0
47.012766869 107.0
47.039027435 117.0
47.065288000 109.0
47.091548565 125.0
47.117809131 125.0
47.144069696 114.0
47.170330261 98.0
47.196590827 120.0
47.222851392 144.0
47.249111957 132.0
47.275372523 128.0
47.301633088 112.0
47.327893653 102.0
47.354154219 116.0
47.380414784 133.0
47.406675350 122.0
47.432935915 144.0
47.459196480 125.0
47.485457046 126.0
47.511717611 107.0
47.537978176 137.0
47.564238742 121.0
47.590499307 110.0
47.616759872 114.0
47.643020438 122.0
47.669281003 139.0
47.695541569 136.0
47.721802134 127.0
47.748062699 140.0
47.774323265 125.0
47.800583830 122.0
47.826844395 120.0
47.853104961 102.0
47.879365526 122.0
47.905626091 117.0
47.931886657 115.0
47.958147222 102.0
47.984407787 128.0
48.010668353 118.0
48.036928918 122.0
48.063189484 109.0
48.089450049 107.0
48.115710614 107.0
48.141971180 110.0
48.168231745 114.0
48.194492310 112.0
48.220752876 119.0
48.247013441 130.0
48.273274006 111.0
48.299534572 115.0
48.325795137 115.0
48.352055702 114.0
48.378316268 127.0
48.404576833 126.0
48.430837399 117.0
48.457097964 128.0
48.483358529 125.0
48.509619095 120.0
48.535879660 120.0
48.562140225 114.0
48.588400791 97.0
48.614661356 114.0
48.640921921 119.0
48.667182487 110.0
48.693443052 113.0
48.719703617 132.0
48.745964183 114.0
48.772224748 117.0
48.798485314 140.0
48.824745879 135.0
48.851006444 135.0
48.877267010 123.0
48.903527575 118.0
48.929788140 129.0
48.956048706 119.0
48.982309271 127.0
49.008569836 119.0
49.034830402 113.0
49.061090967 111.0
49.087351532 117.0
49.113612098 113.0
49.139872663 148.0
49.166133229 129.0
49.192393794 104.0
49.218654359 141.0
49.244914925 128.0
49.271175490 127.0
49.297436055 156.0
49.323696621 127.0
49.349957186 135.0
49.376217751 156.0
49.402478317 141.0
49.428738882 140.0
49.454999447 142.0
49.481260013 122.0
49.507520578 146.0
49.533781144 136.0
49.560041709 136.0
49.586302274 140.0
49.612562840 142.0
49.638823405 139.0
49.665083970 116.0
49.691344536 137.0
49.717605101 118.0
49.743865666 136.0
49.770126232 139.0
49.796386797 103.0
49.822647362 143.0
49.848907928 143.0
49.875168493 126.0
49.901429059 122.0
49.927689624 136.0
49.953950189 141.0
49.980210755 142.0
50.006471320 126.0
