10.011630280 1263.0
10.037890845 1184.0
10.064151411 1272.0
10.090411976 1212.0
10.116672541 1205.0
10.142933107 1229.0
10.169193672 1250.0
10.195454238 1240.0
10.221714803 1265.0
10.247975368 1261.0
10.274235934 1297.0
10.300496499 1233.0
10.326757064 1269.0
10.353017630 1251.0
10.379278195 1246.0
10.405538760 1175.0
10.431799326 1251.0
10.458059891 1223.0
10.484320456 1262.0
10.510581022 1227.0
10.536841587 1197.0
10.563102153 1227.0
10.589362718 1275.0
10.615623283 1334.0
10.641883849 1220.0
10.668144414 1218.0
10.694404979 1265.0
10.720665545 1213.0
10.746926110 1230.0
10.773186675 1271.0
10.799447241 1278.0
10.825707806 1220.0
10.851968371 1257.0
10.878228937 1233.0
10.904489502 1165.0
10.930750068 1228.0
10.957010633 1193.0
10.983271198 1194.0
11.009531764 1272.0
11.035792329 1259.0
11.062052894 1221.0
11.088313460 1243.0
11.114574025 1255.0
11.140834590 1330.0
11.167095156 1252.0
11.193355721 1333.0
11.219616286 1250.0
11.245876852 1252.0
11.272137417 1259.0
11.298397983 1247.0
11.324658548 1270.0
11.350919113 1231.0
11.377179679 1254.0
11.403440244 1296.0
11.429700809 1276.0
11.455961375 1330.0
11.482221940 1360.0
11.508482505 1214.0
11.534743071 1219.0
11.561003636 1268.0
11.587264201 1229.0
11.613524767 1321.0
11.639785332 1285.0
11.666045898 1248.0
11.692306463 1235.0
11.718567028 1256.0
11.744827594 1309.0
11.771088159 1293.0
11.797348724 1321.0
11.823609290 1267.0
11.849869855 1289.0
11.876130420 1303.0
11.902390986 1320.0
11.928651551 1261.0
11.954912116 1302.0
11.981172682 1306.0
12.007433247 1340.0
12.033693813 1276.0
12.059954378 1317.0
12.086214943 1308.0
12.112475509 1298.0
12.138736074 1336.0
12.164996639 1295.0
12.191257205 1305.0
12.217517770 1293.0
12.243778335 1317.0
12.270038901 1264.0
12.296299466 1319.0
12.322560031 1268.0
12.348820597 1287.0
12.375081162 1328.0
12.401341728 1336.0
12.427602293 1302.0
12.453862858 1372.0
12.480123424 1387.0
12.506383989 1295.0
12.532644554 1315.0
12.558905120 1353.0
12.585165685 1295.0
12.611426250 1290.0
12.637686816 1349.0
12.663947381 1319.0
12.690207947 1276.0
12.716468512 1339.0
12.742729077 1256.0
12.768989643 1314.0
12.795250208 1295.0
12.821510773 1200.0
12.847771339 1240.0
12.874031904 1264.0
12.900292469 1270.0
12.926553035 1300.0
12.952813600 1363.0
12.979074165 1275.0
13.005334731 1295.0
13.031595296 1218.0
13.057855862 1284.0
13.084116427 1314.0
13.110376992 1239.0
13.136637558 1283.0
13.162898123 1338.0
13.189158688 1315.0
13.215419254 1311.0
13.241679819 1285.0
13.267940384 1307.0
13.294200950 1308.0
13.320461515 1354.0
13.346722080 1291.0
13.372982646 1335.0
13.399243211 1316.0
13.425503777 1326.0
13.451764342 1245.0
13.478024907 1317.0
13.504285473 1301.0
13.530546038 1297.0
13.556806603 1411.0
13.583067169 1315.0
13.609327734 1353.0
13.635588299 1308.0
13.661848865 1242.0
13.688109430 1411.0
13.714369995 1311.0
13.740630561 1348.0
13.766891126 1276.0
13.793151692 1348.0
13.819412257 1342.0
13.845672822 1425.0
13.871933388 1348.0
13.898193953 1380.0
13.924454518 1380.0
13.950715084 1413.0
13.976975649 1294.0
14.003236214 1385.0
14.029496780 1378.0
14.055757345 1334.0
14.082017910 1371.0
14.108278476 1398.0
14.134539041 1455.0
14.160799607 1324.0
14.187060172 1400.0
14.213320737 1339.0
14.239581303 1413.0
14.265841868 1415.0
14.292102433 1373.0
14.318362999 1475.0
14.344623564 1366.0
14.370884129 1474.0
14.397144695 1369.0
14.423405260 1408.0
14.449665825 1401.0
14.475926391 1432.0
14.502186956 1409.0
14.528447522 1350.0
14.554708087 1382.0
14.580968652 1408.0
14.607229218 1438.0
14.633489783 1372.0
14.659750348 1503.0
14.686010914 1375.0
14.712271479 1440.0
14.738532044 1368.0
14.764792610 1443.0
14.791053175 1405.0
14.817313740 1430.0
14.843574306 1360.0
14.869834871 1375.0
14.896095437 1395.0
14.922356002 1359.0
14.948616567 1407.0
14.974877133 1426.0
15.001137698 1339.0
15.027398263 1446.0
15.053658829 1463.0
15.079919394 1386.0
15.106179959 1515.0
15.132440525 1474.0
15.158701090 1480.0
15.184961655 1388.0
15.211222221 1466.0
15.237482786 1460.0
15.263743352 1487.0
15.290003917 1462.0
15.316264482 1551.0
15.342525048 1486.0
15.368785613 1445.0
15.395046178 1463.0
15.421306744 1492.0
15.447567309 1467.0
15.473827874 1422.0
15.500088440 1462.0
15.526349005 1498.0
15.552609571 1552.0
15.578870136 1483.0
15.605130701 1512.0
15.631391267 1459.0
15.657651832 1528.0
15.683912397 1496.0
15.710172963 1490.0
15.736433528 1446.0
15.762694093 1412.0
15.788954659 1461.0
15.815215224 1525.0
15.841475789 1537.0
15.867736355 1532.0
15.893996920 1538.0
15.920257486 1582.0
15.946518051 1488.0
15.972778616 1552.0
15.999039182 1532.0
16.025299747 1541.0
16.051560312 1553.0
16.077820878 1579.0
16.104081443 1456.0
16.130342008 1607.0
16.156602574 1564.0
16.182863139 1570.0
16.209123704 1619.0
16.235384270 1644.0
16.261644835 1645.0
16.287905401 1607.0
16.314165966 1514.0
16.340426531 1636.0
16.366687097 1629.0
16.392947662 1594.0
16.419208227 1562.0
16.445468793 1647.0
16.471729358 1636.0
16.497989923 1582.0
16.524250489 1696.0
16.550511054 1631.0
16.576771619 1700.0
16.603032185 1557.0
16.629292750 1657.0
16.655553316 1644.0
16.681813881 1621.0
16.708074446 1646.0
16.734335012 1661.0
16.760595577 1576.0
16.786856142 1629.0
16.813116708 1642.0
16.839377273 1691.0
16.865637838 1716.0
16.891898404 1697.0
16.918158969 1760.0
16.944419534 1712.0
16.970680100 1678.0
16.996940665 1720.0
17.023201231 1685.0
17.049461796 1643.0
17.075722361 1637.0
17.101982927 1785.0
17.128243492 1698.0
17.154504057 1644.0
17.180764623 1805.0
17.207025188 1734.0
17.233285753 1653.0
17.259546319 1694.0
17.285806884 1736.0
17.312067449 1711.0
17.338328015 1699.0
17.364588580 1764.0
17.390849146 1706.0
17.417109711 1778.0
17.443370276 1765.0
17.469630842 1708.0
17.495891407 1797.0
17.522151972 1771.0
17.548412538 1800.0
17.574673103 1756.0
17.600933668 1738.0
17.627194234 1813.0
17.653454799 1804.0
17.679715364 1792.0
17.705975930 1824.0
17.732236495 1701.0
17.758497061 1756.0
17.784757626 1819.0
17.811018191 1800.0
17.837278757 1861.0
17.863539322 1800.0
17.889799887 1812.0
17.916060453 1921.0
17.942321018 1786.0
17.968581583 1860.0
17.994842149 1858.0
18.021102714 1838.0
18.047363280 1734.0
18.073623845 1889.0
18.099884410 1805.0
18.126144976 1884.0
18.152405541 1850.0
18.178666106 1838.0
18.204926672 1807.0
18.231187237 1877.0
18.257447802 1825.0
18.283708368 1806.0
18.309968933 1831.0
18.336229498 1848.0
18.362490064 1811.0
18.388750629 1911.0
18.415011195 1887.0
18.441271760 1851.0
18.467532325 1822.0
18.493792891 1834.0
18.520053456 1920.0
18.546314021 1835.0
18.572574587 1859.0
18.598835152 1820.0
18.625095717 1919.0
18.651356283 1947.0
18.677616848 1850.0
18.703877413 1941.0
18.730137979 1883.0
18.756398544 1876.0
18.782659110 1941.0
18.808919675 1999.0
18.835180240 1887.0
18.861440806 1945.0
18.887701371 1929.0
18.913961936 1970.0
18.940222502 1846.0
18.966483067 1895.0
18.992743632 1928.0
19.019004198 1903.0
19.045264763 1953.0
19.071525328 1843.0
19.097785894 1874.0
19.124046459 1858.0
19.150307025 1870.0
19.176567590 1923.0
19.202828155 1914.0
19.229088721 1905.0
19.255349286 1928.0
19.281609851 1939.0
19.307870417 1890.0
19.334130982 1929.0
19.360391547 1891.0
19.386652113 1939.0
19.412912678 1872.0
19.439173243 1906.0
19.465433809 1869.0
19.491694374 1827.0
19.517954940 1945.0
19.544215505 1854.0
19.570476070 1891.0
19.596736636 1919.0
19.622997201 1925.0
19.649257766 1898.0
19.675518332 1910.0
19.701778897 1880.0
19.728039462 1890.0
19.754300028 1879.0
19.780560593 1958.0
19.806821158 1875.0
19.833081724 1960.0
19.859342289 1832.0
19.885602855 1880.0
19.911863420 1899.0
19.938123985 1930.0
19.964384551 1812.0
19.990645116 1882.0
20.016905681 1873.0
20.043166247 1875.0
20.069426812 1900.0
20.095687377 1953.0
20.121947943 1887.0
20.148208508 1901.0
20.174469073 1857.0
20.200729639 1803.0
20.226990204 1860.0
20.253250770 1829.0
20.279511335 1825.0
20.305771900 1758.0
20.332032466 1897.0
20.358293031 1850.0
20.384553596 1864.0
20.410814162 1862.0
20.437074727 1826.0
20.463335292 1843.0
20.489595858 1794.0
20.515856423 1833.0
20.542116988 1792.0
20.568377554 1907.0
20.594638119 1851.0
20.620898685 1903.0
20.647159250 1756.0
20.673419815 1851.0
20.699680381 1877.0
20.725940946 1858.0
20.752201511 1855.0
20.778462077 1820.0
20.804722642 1815.0
20.830983207 1877.0
20.857243773 1806.0
20.883504338 1791.0
20.909764904 1827.0
20.936025469 1816.0
20.962286034 1832.0
20.988546600 1808.0
21.014807165 1806.0
21.041067730 1805.0
21.067328296 1748.0
21.093588861 1814.0
21.119849426 1788.0
21.146109992 1800.0
21.172370557 1715.0
21.198631122 1852.0
21.224891688 1730.0
21.251152253 1781.0
21.277412819 1781.0
21.303673384 1738.0
21.329933949 1802.0
21.356194515 1792.0
21.382455080 1801.0
21.408715645 1810.0
21.434976211 1759.0
21.461236776 1740.0
21.487497341 1722.0
21.513757907 1730.0
21.540018472 1732.0
21.566279037 1750.0
21.592539603 1738.0
21.618800168 1757.0
21.645060734 1673.0
21.671321299 1701.0
21.697581864 1737.0
21.723842430 1682.0
21.750102995 1739.0
21.776363560 1725.0
21.802624126 1803.0
21.828884691 1695.0
21.855145256 1690.0
21.881405822 1707.0
21.907666387 1666.0
21.933926952 1521.0
21.960187518 1682.0
21.986448083 1610.0
22.012708649 1638.0
22.038969214 1578.0
22.065229779 1595.0
22.091490345 1612.0
22.117750910 1587.0
22.144011475 1616.0
22.170272041 1659.0
22.196532606 1598.0
22.222793171 1594.0
22.249053737 1547.0
22.275314302 1577.0
22.301574867 1538.0
22.327835433 1577.0
22.354095998 1522.0
22.380356564 1506.0
22.406617129 1595.0
22.432877694 1589.0
22.459138260 1612.0
22.485398825 1554.0
22.511659390 1519.0
22.537919956 1571.0
22.564180521 1553.0
22.590441086 1571.0
22.616701652 1474.0
22.642962217 1562.0
22.669222782 1599.0
22.695483348 1464.0
22.721743913 1554.0
22.748004479 1511.0
22.774265044 1526.0
22.800525609 1538.0
22.826786175 1547.0
22.853046740 1477.0
22.879307305 1508.0
22.905567871 1505.0
22.931828436 1505.0
22.958089001 1512.0
22.984349567 1497.0
23.010610132 1397.0
23.036870697 1507.0
23.063131263 1489.0
23.089391828 1525.0
23.115652394 1541.0
23.141912959 1503.0
23.168173524 1495.0
23.194434090 1474.0
23.220694655 1566.0
23.246955220 1462.0
23.273215786 1498.0
23.299476351 1409.0
23.325736916 1476.0
23.351997482 1416.0
23.378258047 1517.0
23.404518613 1407.0
23.430779178 1450.0
23.457039743 1429.0
23.483300309 1430.0
23.509560874 1407.0
23.535821439 1357.0
23.562082005 1399.0
23.588342570 1384.0
23.614603135 1361.0
23.640863701 1422.0
23.667124266 1353.0
23.693384831 1411.0
23.719645397 1372.0
23.745905962 1350.0
23.772166528 1356.0
23.798427093 1383.0
23.824687658 1359.0
23.850948224 1343.0
23.877208789 1347.0
23.903469354 1330.0
23.929729920 1308.0
23.955990485 1340.0
23.982251050 1285.0
24.008511616 1288.0
24.034772181 1358.0
24.061032746 1299.0
24.087293312 1300.0
24.113553877 1287.0
24.139814443 1311.0
24.166075008 1317.0
24.192335573 1270.0
24.218596139 1260.0
24.244856704 1247.0
24.271117269 1268.0
24.297377835 1285.0
24.323638400 1268.0
24.349898965 1279.0
24.376159531 1238.0
24.402420096 1256.0
24.428680661 1350.0
24.454941227 1287.0
24.481201792 1224.0
24.507462358 1246.0
24.533722923 1210.0
24.559983488 1307.0
24.586244054 1249.0
24.612504619 1254.0
24.638765184 1201.0
24.665025750 1289.0
24.691286315 1267.0
24.717546880 1205.0
24.743807446 1277.0
24.770068011 1217.0
24.796328576 1229.0
24.822589142 1209.0
24.848849707 1211.0
24.875110273 1229.0
24.901370838 1228.0
24.927631403 1202.0
24.953891969 1148.0
24.980152534 1210.0
25.006413099 1174.0
25.032673665 1187.0
25.058934230 1174.0
25.085194795 1156.0
25.111455361 1137.0
25.137715926 1187.0
25.163976491 1206.0
25.190237057 1187.0
25.216497622 1164.0
25.242758188 1142.0
25.269018753 1195.0
25.295279318 1154.0
25.321539884 1188.0
25.347800449 1083.0
25.374061014 1152.0
25.400321580 1189.0
25.426582145 1113.0
25.452842710 1176.0
25.479103276 1194.0
25.505363841 1180.0
25.531624406 1153.0
25.557884972 1140.0
25.584145537 1113.0
25.610406103 1100.0
25.636666668 1096.0
25.662927233 1133.0
25.689187799 1110.0
25.715448364 1099.0
25.741708929 1117.0
25.767969495 1067.0
25.794230060 1101.0
25.820490625 1089.0
25.846751191 1090.0
25.873011756 1066.0
25.899272321 1097.0
25.925532887 1138.0
25.951793452 1091.0
25.978054018 1094.0
26.004314583 1099.0
26.030575148 1135.0
26.056835714 1129.0
26.083096279 1121.0
26.109356844 1037.0
26.135617410 1081.0
26.161877975 1055.0
26.188138540 1032.0
26.214399106 1092.0
26.240659671 1049.0
26.266920237 1103.0
26.293180802 1132.0
26.319441367 1027.0
26.345701933 1042.0
26.371962498 1074.0
26.398223063 1063.0
26.424483629 1113.0
26.450744194 1038.0
26.477004759 1082.0
26.503265325 1088.0
26.529525890 975.0
26.555786455 1049.0
26.582047021 1022.0
26.608307586 1064.0
26.634568152 1080.0
26.660828717 1038.0
26.687089282 1038.0
26.713349848 1076.0
26.739610413 1048.0
26.765870978 1059.0
26.792131544 1120.0
26.818392109 1112.0
26.844652674 1064.0
26.870913240 1116.0
26.897173805 1104.0
26.923434370 1196.0
26.949694936 1232.0
26.975955501 1223.0
27.002216067 1210.0
27.028476632 1315.0
27.054737197 1240.0
27.080997763 1396.0
27.107258328 1430.0
27.133518893 1467.0
27.159779459 1645.0
27.186040024 2011.0
27.212300589 1638.0
27.238561155 1634.0
27.264821720 1644.0
27.291082285 1710.0
27.317342851 1634.0
27.343603416 1613.0
27.369863982 1567.0
27.396124547 1642.0
27.422385112 1642.0
27.448645678 1550.0
27.474906243 1671.0
27.501166808 1663.0
27.527427374 1657.0
27.553687939 1595.0
27.579948504 1660.0
27.606209070 1845.0
27.632469635 1711.0
27.658730200 1655.0
27.684990766 1688.0
27.711251331 1775.0
27.737511897 1695.0
27.763772462 1895.0
27.790033027 1739.0
27.816293593 1812.0
27.842554158 1876.0
27.868814723 1732.0
27.895075289 1974.0
27.921335854 1762.0
27.947596419 1850.0
27.973856985 1828.0
28.000117550 1904.0
28.026378115 1835.0
28.052638681 2069.0
28.078899246 2461.0
28.105159812 2032.0
28.131420377 2054.0
28.157680942 2087.0
28.183941508 2102.0
28.210202073 2572.0
28.236462638 2255.0
28.262723204 2086.0
28.288983769 2000.0
28.315244334 2056.0
28.341504900 2257.0
28.367765465 1770.0
28.394026030 1955.0
28.420286596 2063.0
28.446547161 2221.0
28.472807727 2268.0
28.499068292 2232.0
28.525328857 2713.0
28.551589423 3269.0
28.577849988 2481.0
28.604110553 2257.0
28.630371119 2124.0
28.656631684 2142.0
28.682892249 2303.0
28.709152815 2565.0
28.735413380 2865.0
28.761673946 3552.0
28.787934511 3049.0
28.814195076 2720.0
28.840455642 2952.0
28.866716207 2613.0
28.892976772 2604.0
28.919237338 2524.0
28.945497903 2757.0
28.971758468 2694.0
28.998019034 2856.0
29.024279599 3146.0
29.050540164 5272.0
29.076800730 3746.0
29.103061295 3106.0
29.129321861 3311.0
29.155582426 2438.0
29.181842991 1974.0
29.208103557 1918.0
29.234364122 1665.0
29.260624687 1446.0
29.286885253 1199.0
29.313145818 1128.0
29.339406383 1023.0
29.365666949 986.0
29.391927514 993.0
29.418188079 985.0
29.444448645 933.0
29.470709210 909.0
29.496969776 961.0
29.523230341 867.0
29.549490906 900.0
29.575751472 947.0
29.602012037 856.0
29.628272602 897.0
29.654533168 900.0
29.680793733 891.0
29.707054298 884.0
29.733314864 849.0
29.759575429 909.0
29.785835994 834.0
29.812096560 894.0
29.838357125 878.0
29.864617691 847.0
29.890878256 852.0
29.917138821 859.0
29.943399387 868.0
29.969659952 896.0
29.995920517 853.0
30.022181083 865.0
30.048441648 788.0
30.074702213 871.0
30.100962779 853.0
30.127223344 826.0
30.153483909 864.0
30.179744475 836.0
30.206005040 794.0
30.232265606 895.0
30.258526171 864.0
30.284786736 815.0
30.311047302 795.0
30.337307867 830.0
30.363568432 803.0
30.389828998 881.0
30.416089563 775.0
30.442350128 811.0
30.468610694 848.0
30.494871259 884.0
30.521131824 808.0
30.547392390 869.0
30.573652955 781.0
30.599913521 834.0
30.626174086 837.0
30.652434651 797.0
30.678695217 811.0
30.704955782 820.0
30.731216347 823.0
30.757476913 811.0
30.783737478 857.0
30.809998043 822.0
30.836258609 846.0
30.862519174 791.0
30.888779739 736.0
30.915040305 806.0
30.941300870 756.0
30.967561436 850.0
30.993822001 904.0
31.020082566 821.0
31.046343132 816.0
31.072603697 788.0
31.098864262 774.0
31.125124828 825.0
31.151385393 753.0
31.177645958 800.0
31.203906524 767.0
31.230167089 771.0
31.256427654 789.0
31.282688220 796.0
31.308948785 802.0
31.335209351 814.0
31.361469916 786.0
31.387730481 782.0
31.413991047 739.0
31.440251612 814.0
31.466512177 762.0
31.492772743 770.0
31.519033308 782.0
31.545293873 820.0
31.571554439 789.0
31.597815004 761.0
31.624075570 841.0
31.650336135 841.0
31.676596700 729.0
31.702857266 788.0
31.729117831 788.0
31.755378396 854.0
31.781638962 885.0
31.807899527 823.0
31.834160092 812.0
31.860420658 804.0
31.886681223 845.0
31.912941788 809.0
31.939202354 801.0
31.965462919 799.0
31.991723485 799.0
32.017984050 806.0
32.044244615 801.0
32.070505181 731.0
32.096765746 739.0
32.123026311 774.0
32.149286877 789.0
32.175547442 806.0
32.201808007 770.0
32.228068573 778.0
32.254329138 747.0
32.280589703 775.0
32.306850269 787.0
32.333110834 781.0
32.359371400 752.0
32.385631965 780.0
32.411892530 770.0
32.438153096 710.0
32.464413661 804.0
32.490674226 803.0
32.516934792 805.0
32.543195357 758.0
32.569455922 765.0
32.595716488 741.0
32.621977053 825.0
32.648237618 752.0
32.674498184 842.0
32.700758749 780.0
32.727019315 782.0
32.753279880 801.0
32.779540445 785.0
32.805801011 782.0
32.832061576 787.0
32.858322141 789.0
32.884582707 787.0
32.910843272 796.0
32.937103837 767.0
32.963364403 758.0
32.989624968 803.0
33.015885533 797.0
33.042146099 733.0
33.068406664 700.0
33.094667230 756.0
33.120927795 775.0
33.147188360 715.0
33.173448926 784.0
33.199709491 767.0
33.225970056 764.0
33.252230622 733.0
33.278491187 710.0
33.304751752 693.0
33.331012318 742.0
33.357272883 729.0
33.383533448 716.0
33.409794014 719.0
33.436054579 717.0
33.462315145 722.0
33.488575710 727.0
33.514836275 718.0
33.541096841 721.0
33.567357406 747.0
33.593617971 680.0
33.619878537 755.0
33.646139102 713.0
33.672399667 730.0
33.698660233 704.0
33.724920798 728.0
33.751181363 685.0
33.777441929 690.0
33.803702494 725.0
33.829963060 693.0
33.856223625 669.0
33.882484190 710.0
33.908744756 696.0
33.935005321 676.0
33.961265886 704.0
33.987526452 733.0
34.013787017 694.0
34.040047582 690.0
34.066308148 665.0
34.092568713 683.0
34.118829279 708.0
34.145089844 709.0
34.171350409 662.0
34.197610975 720.0
34.223871540 668.0
34.250132105 739.0
34.276392671 668.0
34.302653236 737.0
34.328913801 717.0
34.355174367 650.0
34.381434932 670.0
34.407695497 684.0
34.433956063 667.0
34.460216628 706.0
34.486477194 670.0
34.512737759 677.0
34.538998324 674.0
34.565258890 662.0
34.591519455 659.0
34.617780020 699.0
34.644040586 700.0
34.670301151 616.0
34.696561716 648.0
34.722822282 678.0
34.749082847 671.0
34.775343412 692.0
34.801603978 689.0
34.827864543 656.0
34.854125109 655.0
34.880385674 633.0
34.906646239 684.0
34.932906805 652.0
34.959167370 694.0
34.985427935 679.0
35.011688501 700.0
35.037949066 651.0
35.064209631 678.0
35.090470197 694.0
35.116730762 675.0
35.142991327 662.0
35.169251893 688.0
35.195512458 642.0
35.221773024 694.0
35.248033589 689.0
35.274294154 666.0
35.300554720 680.0
35.326815285 614.0
35.353075850 632.0
35.379336416 673.0
35.405596981 664.0
35.431857546 633.0
35.458118112 676.0
35.484378677 660.0
35.510639242 636.0
35.536899808 640.0
35.563160373 664.0
35.589420939 651.0
35.615681504 644.0
35.641942069 669.0
35.668202635 700.0
35.694463200 654.0
35.720723765 701.0
35.746984331 644.0
35.773244896 675.0
35.799505461 604.0
35.825766027 635.0
35.852026592 649.0
35.878287157 613.0
35.904547723 615.0
35.930808288 627.0
35.957068854 641.0
35.983329419 631.0
36.009589984 626.0
36.035850550 663.0
36.062111115 715.0
36.088371680 588.0
36.114632246 620.0
36.140892811 640.0
36.167153376 653.0
36.193413942 692.0
36.219674507 628.0
36.245935072 639.0
36.272195638 618.0
36.298456203 631.0
36.324716769 663.0
36.350977334 575.0
36.377237899 604.0
36.403498465 616.0
36.429759030 617.0
36.456019595 599.0
36.482280161 628.0
36.508540726 583.0
36.534801291 590.0
36.561061857 587.0
36.587322422 613.0
36.613582987 608.0
36.639843553 639.0
36.666104118 604.0
36.692364684 628.0
36.718625249 635.0
36.744885814 616.0
36.771146380 597.0
36.797406945 643.0
36.823667510 634.0
36.849928076 669.0
36.876188641 637.0
36.902449206 618.0
36.928709772 641.0
36.954970337 595.0
36.981230903 625.0
37.007491468 571.0
37.033752033 632.0
37.060012599 583.0
37.086273164 631.0
37.112533729 640.0
37.138794295 569.0
37.165054860 592.0
37.191315425 599.0
37.217575991 600.0
37.243836556 625.0
37.270097121 657.0
37.296357687 598.0
37.322618252 605.0
37.348878818 673.0
37.375139383 611.0
37.401399948 618.0
37.427660514 654.0
37.453921079 622.0
37.480181644 615.0
37.506442210 622.0
37.532702775 626.0
37.558963340 579.0
37.585223906 566.0
37.611484471 613.0
37.637745036 606.0
37.664005602 592.0
37.690266167 618.0
37.716526733 619.0
37.742787298 618.0
37.769047863 627.0
37.795308429 589.0
37.821568994 635.0
37.847829559 633.0
37.874090125 575.0
37.900350690 596.0
37.926611255 590.0
37.952871821 653.0
37.979132386 626.0
38.005392951 617.0
38.031653517 595.0
38.057914082 594.0
38.084174648 604.0
38.110435213 611.0
38.136695778 577.0
38.162956344 591.0
38.189216909 620.0
38.215477474 637.0
38.241738040 582.0
38.267998605 618.0
38.294259170 580.0
38.320519736 581.0
38.346780301 634.0
38.373040866 591.0
38.399301432 600.0
38.425561997 594.0
38.451822563 611.0
38.478083128 584.0
38.504343693 623.0
38.530604259 605.0
38.556864824 593.0
38.583125389 564.0
38.609385955 616.0
38.635646520 613.0
38.661907085 568.0
38.688167651 571.0
38.714428216 594.0
38.740688781 612.0
38.766949347 607.0
38.793209912 576.0
38.819470478 555.0
38.845731043 618.0
38.871991608 605.0
38.898252174 603.0
38.924512739 570.0
38.950773304 638.0
38.977033870 616.0
39.003294435 553.0
39.029555000 598.0
39.055815566 613.0
39.082076131 574.0
39.108336696 581.0
39.134597262 585.0
39.160857827 621.0
39.187118393 650.0
39.213378958 603.0
39.239639523 606.0
39.265900089 650.0
39.292160654 602.0
39.318421219 612.0
39.344681785 590.0
39.370942350 631.0
39.397202915 602.0
39.423463481 599.0
39.449724046 587.0
39.475984612 610.0
39.502245177 577.0
39.528505742 617.0
39.554766308 625.0
39.581026873 572.0
39.607287438 580.0
39.633548004 574.0
39.659808569 575.0
39.686069134 590.0
39.712329700 620.0
39.738590265 645.0
39.764850830 616.0
39.791111396 612.0
39.817371961 587.0
39.843632527 638.0
39.869893092 579.0
39.896153657 564.0
39.922414223 613.0
39.948674788 582.0
39.974935353 541.0
40.001195919 604.0
40.027456484 594.0
40.053717049 588.0
40.079977615 559.0
40.106238180 591.0
40.132498745 593.0
40.158759311 572.0
40.185019876 549.0
40.211280442 606.0
40.237541007 587.0
40.263801572 563.0
40.290062138 577.0
40.316322703 603.0
40.342583268 597.0
40.368843834 569.0
40.395104399 587.0
40.421364964 582.0
40.447625530 573.0
40.473886095 590.0
40.500146660 635.0
40.526407226 557.0
40.552667791 582.0
40.578928357 621.0
40.605188922 566.0
40.631449487 551.0
40.657710053 564.0
40.683970618 531.0
40.710231183 551.0
40.736491749 591.0
40.762752314 580.0
40.789012879 584.0
40.815273445 570.0
40.841534010 577.0
40.867794575 602.0
40.894055141 586.0
40.920315706 553.0
40.946576272 586.0
40.972836837 579.0
40.999097402 562.0
41.025357968 608.0
41.051618533 543.0
41.077879098 570.0
41.104139664 543.0
41.130400229 516.0
41.156660794 558.0
41.182921360 521.0
41.209181925 610.0
41.235442490 576.0
41.261703056 597.0
41.287963621 578.0
41.314224187 559.0
41.340484752 512.0
41.366745317 610.0
41.393005883 561.0
41.419266448 501.0
41.445527013 595.0
41.471787579 605.0
41.498048144 607.0
41.524308709 515.0
41.550569275 566.0
41.576829840 572.0
41.603090405 597.0
41.629350971 575.0
41.655611536 542.0
41.681872102 553.0
41.708132667 602.0
41.734393232 596.0
41.760653798 580.0
41.786914363 610.0
41.813174928 586.0
41.839435494 587.0
41.865696059 571.0
41.891956624 548.0
41.918217190 568.0
41.944477755 588.0
41.970738320 601.0
41.996998886 550.0
42.023259451 520.0
42.049520017 579.0
42.075780582 593.0
42.102041147 546.0
42.128301713 520.0
42.154562278 577.0
42.180822843 564.0
42.207083409 579.0
42.233343974 545.0
42.259604539 573.0
42.285865105 548.0
42.312125670 592.0
42.338386236 555.0
42.364646801 568.0
42.390907366 597.0
42.417167932 574.0
42.443428497 599.0
42.469689062 569.0
42.495949628 555.0
42.522210193 539.0
42.548470758 561.0
42.574731324 495.0
42.600991889 593.0
42.627252454 562.0
42.653513020 586.0
42.679773585 581.0
42.706034151 538.0
42.732294716 546.0
42.758555281 609.0
42.784815847 526.0
42.811076412 533.0
42.837336977 561.0
42.863597543 582.0
42.889858108 554.0
42.916118673 545.0
42.942379239 601.0
42.968639804 616.0
42.994900369 584.0
43.021160935 589.0
43.047421500 590.0
43.073682066 536.0
43.099942631 581.0
43.126203196 563.0
43.152463762 597.0
43.178724327 576.0
43.204984892 598.0
43.231245458 543.0
43.257506023 564.0
43.283766588 552.0
43.310027154 611.0
43.336287719 564.0
43.362548284 618.0
43.388808850 577.0
43.415069415 591.0
43.441329981 613.0
43.467590546 627.0
43.493851111 605.0
43.520111677 594.0
43.546372242 615.0
43.572632807 609.0
43.598893373 601.0
43.625153938 603.0
43.651414503 577.0
43.677675069 592.0
43.703935634 646.0
43.730196199 607.0
43.756456765 604.0
43.782717330 608.0
43.808977896 616.0
43.835238461 581.0
43.861499026 633.0
43.887759592 588.0
43.914020157 607.0
43.940280722 593.0
43.966541288 640.0
43.992801853 610.0
44.019062418 595.0
44.045322984 580.0
44.071583549 588.0
44.097844114 592.0
44.124104680 623.0
44.150365245 619.0
44.176625811 549.0
44.202886376 590.0
44.229146941 610.0
44.255407507 574.0
44.281668072 603.0
44.307928637 548.0
44.334189203 590.0
44.360449768 586.0
44.386710333 547.0
44.412970899 576.0
44.439231464 600.0
44.465492029 568.0
44.491752595 614.0
44.518013160 603.0
44.544273726 608.0
44.570534291 575.0
44.596794856 574.0
44.623055422 584.0
44.649315987 593.0
44.675576552 590.0
44.701837118 575.0
44.728097683 601.0
44.754358248 580.0
44.780618814 648.0
44.806879379 584.0
44.833139945 601.0
44.859400510 646.0
44.885661075 642.0
44.911921641 625.0
44.938182206 630.0
44.964442771 597.0
44.990703337 671.0
45.016963902 706.0
45.043224467 643.0
45.069485033 680.0
45.095745598 609.0
45.122006163 657.0
45.148266729 610.0
45.174527294 635.0
45.200787860 658.0
45.227048425 689.0
45.253308990 717.0
45.279569556 647.0
45.305830121 662.0
45.332090686 632.0
45.358351252 686.0
45.384611817 680.0
45.410872382 634.0
45.437132948 685.0
45.463393513 697.0
45.489654078 703.0
45.515914644 768.0
45.542175209 829.0
45.568435775 1013.0
45.594696340 845.0
45.620956905 735.0
45.647217471 663.0
45.673478036 708.0
45.699738601 726.0
45.725999167 709.0
45.752259732 771.0
45.778520297 778.0
45.804780863 800.0
45.831041428 751.0
45.857301993 802.0
45.883562559 739.0
45.909823124 722.0
45.936083690 767.0
45.962344255 837.0
45.988604820 766.0
46.014865386 777.0
46.041125951 794.0
46.067386516 821.0
46.093647082 760.0
46.119907647 731.0
46.146168212 755.0
46.172428778 902.0
46.198689343 996.0
46.224949908 831.0
46.251210474 863.0
46.277471039 766.0
46.303731605 936.0
46.329992170 844.0
46.356252735 865.0
46.382513301 1158.0
46.408773866 884.0
46.435034431 807.0
46.461294997 887.0
46.487555562 893.0
46.513816127 992.0
46.540076693 963.0
46.566337258 834.0
46.592597823 920.0
46.618858389 952.0
46.645118954 872.0
46.671379520 941.0
46.697640085 988.0
46.723900650 961.0
46.750161216 881.0
46.776421781 907.0
46.802682346 864.0
46.828942912 872.0
46.855203477 945.0
46.881464042 1000.0
46.907724608 1106.0
46.933985173 1032.0
46.960245738 942.0
46.986506304 836.0
47.012766869 830.0
47.039027435 866.0
47.065288000 958.0
47.091548565 914.0
47.117809131 905.0
47.144069696 899.0
47.170330261 901.0
47.196590827 1416.0
47.222851392 1380.0
47.249111957 1365.0
47.275372523 1409.0
47.301633088 1237.0
47.327893653 1140.0
47.354154219 1489.0
47.380414784 1627.0
47.406675350 1252.0
47.432935915 1021.0
47.459196480 983.0
47.485457046 1114.0
47.511717611 1177.0
47.537978176 1012.0
47.564238742 1052.0
47.590499307 1074.0
47.616759872 1053.0
47.643020438 1000.0
47.669281003 1150.0
47.695541569 1187.0
47.721802134 1140.0
47.748062699 1002.0
47.774323265 1083.0
47.800583830 1195.0
47.826844395 1183.0
47.853104961 1069.0
47.879365526 1196.0
47.905626091 1576.0
47.931886657 1787.0
47.958147222 1448.0
47.984407787 1217.0
48.010668353 1167.0
48.036928918 1336.0
48.063189484 1248.0
48.089450049 1546.0
48.115710614 1362.0
48.141971180 1225.0
48.168231745 1289.0
48.194492310 1398.0
48.220752876 1247.0
48.247013441 1168.0
48.273274006 1267.0
48.299534572 1299.0
48.325795137 2035.0
48.352055702 2196.0
48.378316268 1405.0
48.404576833 1130.0
48.430837399 1244.0
48.457097964 1187.0
48.483358529 1134.0
48.509619095 974.0
48.535879660 941.0
48.562140225 917.0
48.588400791 831.0
48.614661356 726.0
48.640921921 712.0
48.667182487 659.0
48.693443052 576.0
48.719703617 541.0
48.745964183 532.0
48.772224748 544.0
48.798485314 498.0
48.824745879 437.0
48.851006444 501.0
48.877267010 454.0
48.903527575 493.0
48.929788140 478.0
48.956048706 457.0
48.982309271 483.0
49.008569836 490.0
49.034830402 448.0
49.061090967 505.0
49.087351532 448.0
49.113612098 475.0
49.139872663 493.0
49.166133229 473.0
49.192393794 455.0
49.218654359 460.0
49.244914925 490.0
49.271175490 449.0
49.297436055 505.0
49.323696621 499.0
49.349957186 442.0
49.376217751 457.0
49.402478317 450.0
49.428738882 445.0
49.454999447 442.0
49.481260013 452.0
49.507520578 495.0
49.533781144 430.0
49.560041709 439.0
49.586302274 439.0
49.612562840 455.0
49.638823405 476.0
49.665083970 436.0
49.691344536 461.0
49.717605101 423.0
49.743865666 473.0
49.770126232 451.0
49.796386797 442.0
49.822647362 441.0
49.848907928 438.0
49.875168493 487.0
49.901429059 437.0
49.927689624 408.0
49.953950189 477.0
49.980210755 446.0
50.006471320 427.0
